record,detector,detector_label,fiducial,correction,coverage_target,fs,sub_sample,failed,n_detected,n_ref,analysable_fraction,fraction_corrected,detect_s_per_min,tp,fp,fn,sensitivity,ppv,f1,lag_ms,ibi_mae,ibi_rmse,ibi_bias,ibi_sd,n_ibi,mean_nn_ref,mean_nn_test,mean_nn_err,mean_nn_abserr,mean_nn_pcterr,sdnn_ref,sdnn_test,sdnn_err,sdnn_abserr,sdnn_pcterr,rmssd_ref,rmssd_test,rmssd_err,rmssd_abserr,rmssd_pcterr,pnn50_ref,pnn50_test,pnn50_err,pnn50_abserr,pnn50_pcterr,sdsd_ref,sdsd_test,sdsd_err,sdsd_abserr,sdsd_pcterr,sd1_ref,sd1_test,sd1_err,sd1_abserr,sd1_pcterr,sd2_ref,sd2_test,sd2_err,sd2_abserr,sd2_pcterr,sd1_sd2_ref,sd1_sd2_test,sd1_sd2_err,sd1_sd2_abserr,sd1_sd2_pcterr,sampen_ref,sampen_test,sampen_err,sampen_abserr,sampen_pcterr,dfa_a1_ref,dfa_a1_test,dfa_a1_err,dfa_a1_abserr,dfa_a1_pcterr,lf_ref,lf_test,lf_err,lf_abserr,lf_pcterr,hf_ref,hf_test,hf_err,hf_abserr,hf_pcterr,lf_hf_ref,lf_hf_test,lf_hf_err,lf_hf_abserr,lf_hf_pcterr,channel
s1_sit,msptdfast,MSPTDfast v2,mid_upslope,lipponen_tarvainen,1.0,100.0,True,False,612,613,0.9841512286143937,0.0,0.2082248195062102,612,0,1,0.99836867862969,1.0,0.9991836734693879,314.00000000000585,5.003273322423064,7.18187844987188,0.018003273322441796,7.187740241343785,611,828.437908496732,828.3878887070376,-0.050019789694374595,0.050019789694374595,-0.006037844137907641,46.977980713169195,47.75942221649211,0.7814415033229167,0.7814415033229167,1.6634208015327863,30.45299025358163,32.22706326299912,1.7740730094174886,1.7740730094174886,5.8256118517255855,9.00163666121113,10.98360655737705,1.9819698961659196,1.9819698961659196,22.01788375558867,30.477600635297417,32.2530425323083,1.7754418970108823,1.7754418970108823,5.825399178420452,21.550918083514233,22.806345088493337,1.2554270049791043,1.2554270049791043,5.825399178420459,62.844405268340736,63.57511655208252,0.7307112837417833,0.7307112837417833,1.162730843933844,0.3429250064742197,0.3587306846666925,0.015805678192472805,0.015805678192472805,4.609077172580308,1.6764542772105453,1.7360774790207016,0.059623201810156345,0.059623201810156345,3.556506289534092,1.1460653887927263,1.134574319055397,-0.011491069737329385,0.011491069737329385,-1.002653936651395,570.2327955867494,599.6515429379017,29.41874735115232,29.41874735115232,5.159076710219985,327.28840925752615,328.24775381373945,0.9593445562132956,0.9593445562132956,0.29311901340766316,1.7422945006832276,1.826826036037911,0.08453153535468338,0.08453153535468338,4.851736335133641,pleth_6
s1_sit,msptd,MSPTD,mid_upslope,lipponen_tarvainen,1.0,100.0,True,False,612,613,0.9841512286143937,0.0,0.8815763465159249,612,0,1,0.99836867862969,1.0,0.9991836734693879,314.00000000000585,5.026186579378892,7.224820828680755,0.018003273322441796,7.230717938640576,611,828.437908496732,828.3878887070376,-0.050019789694374595,0.050019789694374595,-0.006037844137907641,46.977980713169195,47.77174331792249,0.7937626047532973,0.7937626047532973,1.689648198375594,30.45299025358163,32.291957076077274,1.838966822495646,1.838966822495646,6.038706896047301,9.00163666121113,11.147540983606557,2.1459043223954275,2.1459043223954275,23.83904619970193,30.477600635297417,32.3179905447969,1.840389909499482,1.840389909499482,6.038499984044175,21.550918083514233,22.852270268548615,1.301352185034382,1.301352185034382,6.038499984044184,62.844405268340736,63.577139467265695,0.732734198924959,0.732734198924959,1.1659497703832835,0.3429250064742197,0.35944162414407915,0.016516617669859457,0.016516617669859457,4.8163934848831556,1.6764542772105453,1.7316555451583495,0.05520126794780422,0.05520126794780422,3.292739247243515,1.1460653887927263,1.1339018626356745,-0.012163526157051852,0.012163526157051852,-1.06132915940032,570.2327955867494,599.4188706075953,29.18607502084592,29.18607502084592,5.118273667654362,327.28840925752615,328.70303295273965,1.4146236952134927,1.4146236952134927,0.4322254180716798,1.7422945006832276,1.823587890939171,0.0812933902559434,0.0812933902559434,4.665881125381778,pleth_6
s1_sit,qppg,qppg (slope-sum),mid_upslope,lipponen_tarvainen,1.0,100.0,True,False,589,613,0.9841512286143937,0.01870748299319728,0.0031916496735160875,588,4,25,0.9592169657422512,0.9932432432432432,0.9759336099585062,314.9999999999953,4.36851211072728,6.158095917465698,-0.053633217993061096,6.163196149469653,578,828.437908496732,832.8902229845626,4.452314487830563,4.452314487830563,0.5374349051589937,46.977980713169195,70.84345762622073,23.86547691305153,23.86547691305153,50.801410683795936,30.45299025358163,85.10797669780689,54.65498644422526,54.65498644422526,179.47329963039408,9.00163666121113,10.652920962199312,1.6512843009881824,1.6512843009881824,18.344267416432352,30.477600635297417,85.17960464006129,54.702004004763864,54.702004004763864,179.4826458268212,21.550918083514233,60.23107605977645,38.680157976262215,38.680157976262215,179.48264582682123,62.844405268340736,80.06127936498197,17.216874096641234,17.216874096641234,27.396033144281525,0.3429250064742197,0.7523121855846953,0.40938717911047556,0.40938717911047556,119.38096417044241,1.6764542772105453,1.3327780790754284,-0.34367619813511685,0.34367619813511685,-20.50018320254819,1.1460653887927263,0.9667553539491377,-0.17931003484358865,0.17931003484358865,-15.64570718189781,570.2327955867494,4485.283651948324,3915.050856361575,3915.050856361575,686.5706228511683,327.28840925752615,759.2166951911004,431.9282859335742,431.9282859335742,131.97176365439586,1.7422945006832276,5.907777951088583,4.165483450405356,4.165483450405356,239.08033049360446,pleth_6
s1_sit,terma,TERMA,mid_upslope,lipponen_tarvainen,1.0,100.0,True,False,612,613,0.9841512286143937,0.0016366612111292963,0.0010012597132922354,611,2,2,0.9967373572593801,0.9967373572593801,0.9967373572593801,314.00000000000585,5.0952380952388445,7.710590247863331,0.10673234811168142,7.716189235073882,609,828.437908496732,829.5539215686274,1.1160130718953951,1.1160130718953951,0.13471294112077653,46.977980713169195,51.51808702438172,4.540106311212526,4.540106311212526,9.664328356156465,30.45299025358163,38.9768070698674,8.52381681628577,8.52381681628577,27.990081582491786,9.00163666121113,11.292962356792144,2.2913256955810137,2.2913256955810137,25.454545454545443,30.477600635297417,39.00462489320612,8.527024257908703,8.527024257908703,27.978003780367114,21.550918083514233,27.580434759623667,6.029516676109434,6.029516676109434,27.978003780367125,62.844405268340736,67.43549658580174,4.591091317461007,4.591091317461007,7.305489323763036,0.3429250064742197,0.4089898667021992,0.06606486022797953,0.06606486022797953,19.26510431747885,1.6764542772105453,1.6518397234755766,-0.02461455373496868,0.02461455373496868,-1.468250823751953,1.1460653887927263,1.0702123578880338,-0.07585303090469253,0.07585303090469253,-6.618560480619406,570.2327955867494,877.5116649114733,307.2788693247239,307.2788693247239,53.8865655751253,327.28840925752615,504.3207195060808,177.03231024855467,177.03231024855467,54.090614039819904,1.7422945006832276,1.7399873353823068,-0.002307165300920788,0.002307165300920788,-0.13242108610318468,pleth_6
s1_sit,heartpy,HeartPy,mid_upslope,lipponen_tarvainen,1.0,100.0,True,False,611,613,0.9841512286143937,0.001639344262295082,0.029065430309958735,610,2,3,0.9951060358890701,0.9967320261437909,0.9959183673469387,314.0000000000104,5.559210526316565,12.259394893627011,0.43421052631578594,12.261790776615927,608,828.437908496732,829.9328968903437,1.4949883936117203,1.4949883936117203,0.18045871371633612,46.977980713169195,49.80483630431074,2.8268555911415447,2.8268555911415447,6.017405491311593,30.45299025358163,38.05095806725558,7.59796781367395,7.59796781367395,24.94982512523656,9.00163666121113,11.311475409836065,2.3098387486249354,2.3098387486249354,25.66020864381519,30.477600635297417,38.081258229262254,7.6036575939648365,7.6036575939648365,24.948347099078116,21.550918083514233,26.927515930027358,5.376597846513125,5.376597846513125,24.94834709907812,62.844405268340736,65.08419412143398,2.239788853093245,2.239788853093245,3.564022673982704,0.3429250064742197,0.4137335691640591,0.07080856268983943,0.07080856268983943,20.648410396738637,1.6764542772105453,1.724378559958914,0.047924282748368796,0.047924282748368796,2.858669240184115,1.1460653887927263,1.0711353966211048,-0.07492999217162155,0.07492999217162155,-6.538020684016411,570.2327955867494,815.6226840476754,245.38988846092604,245.38988846092604,43.03328225947239,327.28840925752615,397.10781982885703,69.81941057133088,69.81941057133088,21.33268658359167,1.7422945006832276,2.053907385654574,0.31161288497134665,0.31161288497134665,17.88520166074966,pleth_6
s1_sit,findpeaks,find_peaks baseline,mid_upslope,lipponen_tarvainen,1.0,100.0,True,False,613,613,0.9841512286143937,0.0016339869281045752,0.00014901624286927523,613,1,0,1.0,0.998371335504886,0.9991850040749797,314.00000000000585,5.1160130718962495,7.725795007423842,0.13888888888892845,7.730865131826553,612,828.437908496732,828.2006525285482,-0.2372559681838311,0.2372559681838311,-0.028638956009914052,46.977980713169195,48.79817578924255,1.8201950760733538,1.8201950760733538,3.8745706998068226,30.45299025358163,32.98484500494095,2.5318547513593224,2.5318547513593224,8.313977478981876,9.00163666121113,11.11111111111111,2.109474449899981,2.109474449899981,23.434343434343422,30.477600635297417,33.006977034122635,2.5293763988252174,2.5293763988252174,8.29913230077514,21.550918083514233,23.339457287296753,1.7885392037825198,1.7885392037825198,8.299132300775137,62.844405268340736,64.94454291355115,2.1001376452104097,2.1001376452104097,3.34180526690162,0.3429250064742197,0.3593751875098163,0.01645018103559659,0.01645018103559659,4.797019967930882,1.6764542772105453,1.7226565322520264,0.04620225504148112,0.04620225504148112,2.7559507986318077,1.1460653887927263,1.180820085261959,0.03475469646923268,0.03475469646923268,3.03252299642724,570.2327955867494,598.498413829949,28.265618243199583,28.265618243199583,4.956855947598605,327.28840925752615,330.046529945631,2.758120688104839,2.758120688104839,0.8427187184421853,1.7422945006832276,1.8133758713613515,0.07108137067812392,0.07108137067812392,4.079756358655205,pleth_6
s1_sit,msptdfast,MSPTDfast v2,mid_upslope,lipponen_tarvainen,0.9,100.0,True,False,612,542,0.8857361057529544,0.01841620626151013,0.022096187004134515,538,6,4,0.992619926199262,0.9889705882352942,0.990791896869245,314.0000000000343,4.689849624060706,6.679702167958172,-0.009398496240642106,6.685982329683121,532,829.8880597014927,829.8142589118199,-0.07380078967275949,0.07380078967275949,-0.00889286076718652,46.53675632162739,47.47343166018742,0.9366753385600362,0.9366753385600362,2.0127645598812993,31.36484131999023,32.779566806167246,1.4147254861770158,1.4147254861770158,4.510545651239585,9.719626168224298,10.526315789473683,0.8066896212493848,0.8066896212493848,8.2995951417004,31.39331035259893,32.809360828791476,1.4160504761925452,1.4160504761925452,4.510675874216354,22.198422634216552,23.19972152843474,1.0012988942181877,1.0012988942181877,4.510675874216351,61.95618944407214,63.00179638861144,1.0456069445393013,1.0456069445393013,1.6876553479506204,0.3582922518863926,0.3682390480635319,0.009946796177139339,0.009946796177139339,2.7761683722631187,1.6863245792442119,1.735683111399905,0.04935853215569308,0.04935853215569308,2.926988834961708,1.0525931863992157,1.1038626119448698,0.05126942554565406,0.05126942554565406,4.870773078157582,476.8828533238871,516.4134151481834,39.530561824296285,39.530561824296285,8.289365312417324,294.93666062044133,291.01400339253627,-3.922657227905063,3.922657227905063,-1.329999878500419,1.6168992092088383,1.774531153580316,0.15763194437147776,0.15763194437147776,9.749027241383112,pleth_6
s1_sit,msptd,MSPTD,mid_upslope,lipponen_tarvainen,0.9,100.0,True,False,612,542,0.8857361057529544,0.01841620626151013,0.9093017053370885,538,6,4,0.992619926199262,0.9889705882352942,0.990791896869245,314.0000000000343,4.719924812030561,6.736306075948634,-0.009398496240642106,6.742639567563071,532,829.8880597014927,829.8142589118199,-0.07380078967275949,0.07380078967275949,-0.00889286076718652,46.53675632162739,47.49433309354371,0.9575767719163224,0.9575767719163224,2.057678376417697,31.36484131999023,32.912163804826385,1.5473224848361546,1.5473224848361546,4.93330244859226,9.719626168224298,10.902255639097744,1.1826294708734455,1.1826294708734455,12.167437825332565,31.39331035259893,32.94208688462132,1.5487765320223872,1.5487765320223872,4.9334603921251325,22.198422634216552,23.293573022552167,1.0951503883356146,1.0951503883356146,4.933460392125135,61.95618944407214,62.99867306415264,1.0424836200805032,1.0424836200805032,1.6826141656461189,0.3582922518863926,0.36974704211360004,0.011454790227207468,0.011454790227207468,3.1970521737208974,1.6863245792442119,1.7207484335848664,0.034423854340654536,0.034423854340654536,2.0413540052937407,1.0525931863992157,1.1033693710372607,0.05077618463804501,0.05077618463804501,4.823913482828416,476.8828533238871,516.2450017941995,39.362148470312434,39.362148470312434,8.254049856470438,294.93666062044133,290.83427436679693,-4.102386253644397,4.102386253644397,-1.390938055992918,1.6168992092088383,1.7750487040021876,0.15814949479334928,0.15814949479334928,9.781036065366937,pleth_6
s1_sit,qppg,qppg (slope-sum),mid_upslope,lipponen_tarvainen,0.9,100.0,True,False,589,542,0.8857361057529544,0.030303030303030304,0.0032037547330000158,522,9,20,0.9630996309963099,0.9830508474576272,0.9729729729729729,314.9999999999953,4.217647058823478,5.960490833846877,-0.017647058823469224,5.966316910650293,510,829.8880597014927,834.5600775193799,4.672017817887195,4.672017817887195,0.562969639491825,46.53675632162739,73.36371868052161,26.826962358894228,26.826962358894228,57.64682474533948,31.36484131999023,89.79640401907625,58.431562699086015,58.431562699086015,186.29637594195302,9.719626168224298,10.679611650485436,0.9599854822611373,0.9599854822611373,9.876773711725164,31.39331035259893,89.88161371577814,58.48830336317921,58.48830336317921,186.30817427744503,22.198422634216552,63.55589856241653,41.357475928199975,41.357475928199975,186.308174277445,61.95618944407214,82.00681797992928,20.050628535857143,20.050628535857143,32.36259155989064,0.3582922518863926,0.7750074948398984,0.4167152429535058,0.4167152429535058,116.30595994178462,1.6863245792442119,1.3128802269947935,-0.3734443522494184,0.3734443522494184,-22.145461013015133,1.0525931863992157,0.7629750498242843,-0.2896181365749314,0.2896181365749314,-27.51472651705806,476.8828533238871,4415.362023823136,3938.479170499249,3938.479170499249,825.8798031944191,294.93666062044133,729.7753566760712,434.83869605562984,434.83869605562984,147.43460346397245,1.6168992092088383,6.050302991778063,4.433403782569224,4.433403782569224,274.1917218661096,pleth_6
s1_sit,terma,TERMA,mid_upslope,lipponen_tarvainen,0.9,100.0,True,False,612,542,0.8857361057529544,0.02029520295202952,0.0004108044061469462,537,7,5,0.9907749077490775,0.9871323529411765,0.9889502762430941,314.0000000000343,4.681732580038194,6.632965665647103,-0.026365348399314786,6.6391677821734305,531,829.8880597014927,829.4709193245778,-0.4171403769148583,0.4171403769148583,-0.05026465582176251,46.53675632162739,48.4740997281434,1.937343406516014,1.937343406516014,4.163039196643917,31.36484131999023,33.24691177924838,1.8820704592581485,1.8820704592581485,6.000573827416815,9.719626168224298,10.526315789473683,0.8066896212493848,0.8066896212493848,8.2995951417004,31.39331035259893,33.272619189708394,1.8793088371094626,1.8793088371094626,5.986335356168904,22.198422634216552,23.527294656880457,1.328872022663905,1.328872022663905,5.986335356168899,61.95618944407214,64.38899824532378,2.432808801251639,2.432808801251639,3.9266598270181476,0.3582922518863926,0.3653930841918187,0.00710083230542613,0.00710083230542613,1.9818548316466704,1.6863245792442119,1.7366481390098312,0.05032355976561931,0.05032355976561931,2.984215517286337,1.0525931863992157,1.117963339552264,0.06537015315304817,0.06537015315304817,6.210391060640527,476.8828533238871,519.1446398738915,42.26178655000439,42.26178655000439,8.862089768050692,294.93666062044133,287.114747228628,-7.821913391813325,7.821913391813325,-2.6520654893694173,1.6168992092088383,1.8081434161251886,0.19124420691635025,0.19124420691635025,11.82783724719165,pleth_6
s1_sit,heartpy,HeartPy,mid_upslope,lipponen_tarvainen,0.9,100.0,True,False,611,542,0.8857361057529544,0.018484288354898338,0.026038303165562247,535,7,7,0.9870848708487084,0.9870848708487084,0.9870848708487084,314.0000000000343,4.593572778828541,6.418310291215823,0.07939508506606242,6.423893815638226,529,829.8880597014927,831.5065913370997,1.6185316356070416,1.6185316356070416,0.1950301148071971,46.53675632162739,60.098703827581,13.561947505953611,13.561947505953611,29.14244261508803,31.36484131999023,57.7333819919338,26.368540671943567,26.368540671943567,84.07037804823103,9.719626168224298,10.566037735849058,0.8464115676247594,0.8464115676247594,8.708272859216276,31.39331035259893,57.78731977503886,26.39400942243993,26.39400942243993,84.07526675585162,22.198422634216552,40.86180567952545,18.6633830453089,18.6633830453089,84.07526675585159,61.95618944407214,74.52530603841423,12.569116594342091,12.569116594342091,20.287104011921574,0.3582922518863926,0.5482943694114204,0.19000211752502782,0.19000211752502782,53.02992641472854,1.6863245792442119,1.4699867078809765,-0.21633787136323535,0.21633787136323535,-12.828957961354929,1.0525931863992157,0.833712034932848,-0.21888115146636777,0.21888115146636777,-20.79446782428183,476.8828533238871,3247.476202905928,2770.593349582041,2770.593349582041,580.9798633502811,294.93666062044133,275.05926370811756,-19.877396912323775,19.877396912323775,-6.739547694921627,1.6168992092088383,11.806460030199261,10.189560820990422,10.189560820990422,630.1914654269796,pleth_6
s1_sit,findpeaks,find_peaks baseline,mid_upslope,lipponen_tarvainen,0.9,100.0,True,False,613,542,0.8857361057529544,0.029465930018416207,0.00014330029197327264,532,13,10,0.981549815498155,0.9761467889908257,0.9788408463661454,314.0000000000343,4.688212927757264,6.624645768562705,-0.03802281368826869,6.630842730858854,526,829.8880597014927,829.4026465028356,-0.48541319865705645,0.48541319865705645,-0.05849140651953199,46.53675632162739,48.45235937853162,1.9156030569042315,1.9156030569042315,4.116322684084405,31.36484131999023,32.75442371233631,1.3895823923460817,1.3895823923460817,4.430382344897878,9.719626168224298,10.227272727272728,0.50764655904843,0.50764655904843,5.222902097902117,31.39331035259893,32.77973125940269,1.3864209068037567,1.3864209068037567,4.416294080592174,22.198422634216552,23.17877025899629,0.9803476247797391,0.9803476247797391,4.416294080592175,61.95618944407214,64.48260903509899,2.526419591026851,2.526419591026851,4.077751736664584,0.3582922518863926,0.3594576988406237,0.0011654469542310975,0.0011654469542310975,0.32527830230630767,1.6863245792442119,1.7193043900126328,0.032979810768420936,0.032979810768420936,1.955721405851894,1.0525931863992157,1.1503589378759616,0.09776575147674582,0.09776575147674582,9.288085153884543,476.8828533238871,504.22089850663207,27.338045182744963,27.338045182744963,5.732654255064531,294.93666062044133,282.09150701210365,-12.845153608337682,12.845153608337682,-4.355224467964094,1.6168992092088383,1.7874373597677917,0.17053815055895338,0.17053815055895338,10.547234458875087,pleth_6
s1_sit,msptdfast,MSPTDfast v2,mid_upslope,lipponen_tarvainen,0.75,100.0,True,False,612,457,0.7479549337469392,0.0437636761487965,0.02188596049195262,447,11,10,0.9781181619256017,0.9759825327510917,0.9770491803278689,315.00000000001063,4.5940366972482485,6.60153582352959,-0.10779816513764441,6.6082382381410305,436,835.053811659193,835.091533180778,0.03772152158501285,0.03772152158501285,0.004517256380168225,46.855760225798555,47.92780165277576,1.0720414269772078,1.0720414269772078,2.2879608010008274,31.882649996301428,32.88037813126567,0.9977281349642446,0.9977281349642446,3.129376432260138,10.337078651685392,10.550458715596331,0.21338006391093955,0.21338006391093955,2.0642201834862632,31.917919708879925,32.917611468412666,0.999691759532741,0.999691759532741,3.132070537963712,22.569377467516752,23.276266289778665,0.706888822261913,0.706888822261913,3.1320705379637133,62.30206845204899,63.65817912996682,1.356110677917826,1.356110677917826,2.1766703925112236,0.3622572737675211,0.36564455043957517,0.0033872766720540737,0.0033872766720540737,0.9350472488311887,1.719610361559666,1.7227665977411035,0.003156236181437455,0.003156236181437455,0.18354368245227287,1.068288928546959,1.0383617978786697,-0.029927130668289337,0.029927130668289337,-2.80140792145014,436.484076461861,489.9893076443441,53.5052311824831,53.5052311824831,12.258232102347558,265.9112938317648,261.93469300571996,-3.9766008260448302,3.9766008260448302,-1.4954614257793515,1.6414649794378917,1.8706544826944478,0.22918950325655607,0.22918950325655607,13.96249728916181,pleth_6
s1_sit,msptd,MSPTD,mid_upslope,lipponen_tarvainen,0.75,100.0,True,False,612,457,0.7479549337469392,0.0437636761487965,0.9079592600755,447,11,10,0.9781181619256017,0.9759825327510917,0.9770491803278689,315.0000000000035,4.630733944954585,6.671691531380261,-0.10779816513764441,6.678483805876803,436,835.053811659193,835.091533180778,0.03772152158501285,0.03772152158501285,0.004517256380168225,46.855760225798555,47.95253623011841,1.0967760043198567,1.0967760043198567,2.340749566402248,31.882649996301428,33.040078525795586,1.1574285294941582,1.1574285294941582,3.630277061751224,10.337078651685392,11.009174311926607,0.6720956602412151,0.6720956602412151,6.5017949740726255,31.917919708879925,33.07749792416666,1.1595782152867322,1.1595782152867322,3.633000602367342,22.569377467516752,23.389323086862195,0.8199456193454431,0.8199456193454431,3.6330006023673436,62.30206845204899,63.65399459059905,1.3519261385500556,1.3519261385500556,2.16995385890048,0.3622572737675211,0.3674447022106689,0.00518742844314779,0.00518742844314779,1.431973577562124,1.719610361559666,1.7098303554179173,-0.009780006141748787,0.009780006141748787,-0.5687338457811127,1.068288928546959,1.0367446917146064,-0.031544236832352635,0.031544236832352635,-2.952781404863735,436.484076461861,489.84723464061324,53.36315817875226,53.36315817875226,12.225682689575736,265.9112938317648,261.39879461314825,-4.51249921861654,4.51249921861654,-1.6969941944141274,1.6414649794378917,1.8739460346997872,0.23248105526189544,0.23248105526189544,14.16302255449318,pleth_6
s1_sit,qppg,qppg (slope-sum),mid_upslope,lipponen_tarvainen,0.75,100.0,True,False,589,457,0.7479549337469392,0.05145413870246085,0.0036449221729057484,434,14,23,0.949671772428884,0.96875,0.9591160220994475,315.4999999999846,4.0023752969124615,5.331972312482117,-0.10213776722081998,5.337336609744615,421,835.053811659193,837.7830188679246,2.729207208731623,2.729207208731623,0.3268301001235933,46.855760225798555,58.625671478879966,11.76991125308141,11.76991125308141,25.119454249300507,31.882649996301428,58.882902590600374,27.000252594298946,27.000252594298946,84.68635009144826,10.337078651685392,9.692671394799055,-0.6444072568863373,0.6444072568863373,-6.233939767704786,31.917919708879925,58.952308301484635,27.03438859260471,27.03438859260471,84.69971990399938,22.569377467516752,41.68557696657979,19.116199499063036,19.116199499063036,84.69971990399938,62.30206845204899,71.66764531964526,9.365576867596268,9.365576867596268,15.032529577737082,0.3622572737675211,0.581651270676715,0.21939399690919387,0.21939399690919387,60.56303428429988,1.719610361559666,1.5275121866685697,-0.19209817489109637,0.19209817489109637,-11.171029157841643,1.068288928546959,1.0518076436357164,-0.016481284911242566,0.016481284911242566,-1.5427741007912257,436.484076461861,2711.828786113795,2275.344709651934,2275.344709651934,521.2892823252279,265.9112938317648,513.3501498233331,247.43885599156835,247.43885599156835,93.053157850496,1.6414649794378917,5.282610294449232,3.6411453150113404,3.6411453150113404,221.8229057959083,pleth_6
s1_sit,terma,TERMA,mid_upslope,lipponen_tarvainen,0.75,100.0,True,False,612,457,0.7479549337469392,0.046153846153846156,0.0004557171316113512,446,11,11,0.975929978118162,0.975929978118162,0.975929978118162,315.00000000001063,4.583908045977521,6.543927605477996,-0.1287356321839713,6.55019449610856,435,835.053811659193,835.2155963302753,0.16178467108227323,0.16178467108227323,0.019374161140683677,46.855760225798555,47.90689567011215,1.0511354443135943,1.0511354443135943,2.24334305803205,31.882649996301428,32.30188066123773,0.419230664936304,0.419230664936304,1.314917878485437,10.337078651685392,10.344827586206897,0.0077489345215049354,0.0077489345215049354,0.07496251874064558,31.917919708879925,32.338522723054304,0.42060301417437884,0.42060301417437884,1.3177644972186653,22.569377467516752,22.866788711026956,0.2974112435102043,0.2974112435102043,1.3177644972186628,62.30206845204899,63.775005131628724,1.4729366795797318,1.4729366795797318,2.3641858387308323,0.3622572737675211,0.3585540865709213,-0.0037031871965997887,0.0037031871965997887,-1.0222533720541143,1.719610361559666,1.7271542124636448,0.007543850903978688,0.007543850903978688,0.43869536219452093,1.068288928546959,1.0779287303259208,0.009639801778961843,0.009639801778961843,0.9023590455134165,436.484076461861,488.37854556897827,51.89446910711729,51.89446910711729,11.889200982490301,265.9112938317648,256.4308869946785,-9.48040683708632,9.48040683708632,-3.5652516673790955,1.6414649794378917,1.9045230911637927,0.263058111725901,0.263058111725901,16.025813223013955,pleth_6
s1_sit,heartpy,HeartPy,mid_upslope,lipponen_tarvainen,0.75,100.0,True,False,611,457,0.7479549337469392,0.04395604395604396,0.02219024036914162,444,12,13,0.9715536105032823,0.9736842105263158,0.972617743702081,315.00000000001063,4.475750577367757,6.276537195666368,-1.023969208116172e-13,6.283797507168996,433,835.053811659193,837.1816091954023,2.1277975362093002,2.1277975362093002,0.254809631008272,46.855760225798555,62.712912055001304,15.85715182920275,15.85715182920275,33.84248116514792,31.882649996301428,61.962081462541754,30.079431466240326,30.079431466240326,94.34420121831063,10.337078651685392,10.599078341013826,0.26199968932843376,0.26199968932843376,2.5345622119815876,31.917919708879925,62.033301548061075,30.11538183918115,30.11538183918115,94.35258348244642,22.569377467516752,43.864168184023946,21.294790716507194,21.294790716507194,94.35258348244642,62.30206845204899,77.08276997072898,14.780701518679983,14.780701518679983,23.72425488578441,0.3622572737675211,0.5690528272489521,0.20679555348143103,0.20679555348143103,57.085272941722145,1.719610361559666,1.457465543721807,-0.26214481783785915,0.26214481783785915,-15.244431162888372,1.068288928546959,0.7972302267232418,-0.27105870182371716,0.27105870182371716,-25.373163999031576,436.484076461861,4325.62563705808,3889.1415605962193,3889.1415605962193,891.0156796833445,265.9112938317648,243.14811807068634,-22.763175761078458,22.763175761078458,-8.560439623704035,1.6414649794378917,17.79008479021238,16.148619810774488,16.148619810774488,983.7931368054207,pleth_6
s1_sit,findpeaks,find_peaks baseline,mid_upslope,lipponen_tarvainen,0.75,100.0,True,False,613,457,0.7479549337469392,0.046052631578947366,0.0003910938256276654,446,12,11,0.975929978118162,0.9737991266375546,0.9748633879781421,315.00000000001063,4.583908045977521,6.514351971546338,-0.1287356321839713,6.520579051178028,435,835.053811659193,835.2471395881007,0.19332792890770634,0.19332792890770634,0.02315155337397687,46.855760225798555,47.85014137537427,0.994381149575716,0.994381149575716,2.1222175134578536,31.882649996301428,32.0411146423298,0.1584646460283743,0.1584646460283743,0.4970247016692687,10.337078651685392,10.321100917431194,-0.01597773425419824,0.01597773425419824,-0.15456721180691776,31.917919708879925,32.07736975708136,0.15945004820143183,0.15945004820143183,0.4995627837144757,22.569377467516752,22.682125677860505,0.11274821034375293,0.11274821034375293,0.49956278371446955,62.30206845204899,63.755730989616545,1.4536625375675527,1.4536625375675527,2.333249238243782,0.3622572737675211,0.3557660672348747,-0.006491206532646399,0.006491206532646399,-1.7918774867201523,1.719610361559666,1.705798512503077,-0.013811849056589054,0.013811849056589054,-0.8031964313160961,1.068288928546959,1.0622928379899688,-0.005996090556990241,0.005996090556990241,-0.5612798557358324,436.484076461861,484.9306246928169,48.4465482309559,48.4465482309559,11.099270475950352,265.9112938317648,255.52358339663934,-10.387710435125456,10.387710435125456,-3.906457031380356,1.6414649794378917,1.897792048180844,0.2563270687429522,0.2563270687429522,15.615750074103294,pleth_6
s1_sit,msptdfast,MSPTDfast v2,mid_upslope,lipponen_tarvainen,0.5,100.0,True,False,612,300,0.4920756143071969,0.07920792079207921,0.023225335202387055,292,12,8,0.9733333333333334,0.9605263157894737,0.9668874172185431,314.9999999999822,3.8243727598599495,5.399123783950225,0.003584229391201355,5.408824529465731,279,835.9372822299648,836.4193548387099,0.48207260874505664,0.48207260874505664,0.057668514013284475,49.041543366872,49.815051302521766,0.7735079356497678,0.7735079356497678,1.57725039333138,30.456664157596386,32.28035908619527,1.8236949285988828,1.8236949285988828,5.987835434512035,8.741258741258742,10.431654676258994,1.690395935000252,1.690395935000252,19.338129496402882,30.508493098600006,32.337224303121104,1.8287312045210982,1.8287312045210982,5.994170864522365,21.57276235380305,22.86587058948736,1.2931082356843113,1.2931082356843113,5.994170864522364,65.91480771447272,66.63505559936577,0.7202478848930554,0.7202478848930554,1.0926951164190573,0.3272824893497548,0.3431507692732382,0.015868279923483386,0.015868279923483386,4.848496464021189,1.8312472407351734,1.7011625738758283,-0.13008466685934517,0.13008466685934517,-7.103610258935943,1.0501995757324492,1.0647708751696283,0.014571299437179164,0.014571299437179164,1.3874790824416954,302.03628100568375,342.6041901276909,40.567909122007165,40.567909122007165,13.431468890733612,127.57773129988048,137.51502338327725,9.93729208339677,9.93729208339677,7.78920582937665,2.3674686634435136,2.4913946251006776,0.12392596165716396,0.12392596165716396,5.234534402534058,pleth_6
s1_sit,msptd,MSPTD,mid_upslope,lipponen_tarvainen,0.5,100.0,True,False,612,300,0.4920756143071969,0.07920792079207921,0.9322890491519396,292,12,8,0.9733333333333334,0.9605263157894737,0.9668874172185431,314.9999999999822,3.8243727598597457,5.409735018918483,0.01075268817259759,5.419445318565505,279,835.9372822299648,836.4265232974913,0.48924106752645,0.48924106752645,0.058526049492772916,49.041543366872,49.828563784281926,0.7870204174099271,0.7870204174099271,1.6048035265170029,30.456664157596386,32.33213427033024,1.8754701127338578,1.8754701127338578,6.15783167529227,8.741258741258742,10.431654676258994,1.690395935000252,1.690395935000252,19.338129496402882,30.508493098600006,32.38909502212642,1.880601923526413,1.880601923526413,6.164191451372311,21.57276235380305,22.902548726641044,1.3297863728379937,1.3297863728379937,6.164191451372321,65.91480771447272,66.6426650084789,0.7278572940061849,0.7278572940061849,1.1042394254703582,0.3272824893497548,0.3436619577522473,0.016379468402492492,0.016379468402492492,5.004688284739962,1.8312472407351734,1.7011625738758283,-0.13008466685934517,0.13008466685934517,-7.103610258935943,1.0501995757324492,1.0638711889283734,0.013671613195924248,0.013671613195924248,1.3018109616345204,302.03628100568375,342.8647723724922,40.828491366808464,40.828491366808464,13.517744037525132,127.57773129988048,137.69885438521078,10.121123085330296,10.121123085330296,7.933299159819577,2.3674686634435136,2.489960965204056,0.1224923017605426,0.1224923017605426,5.173977744751897,pleth_6
s1_sit,qppg,qppg (slope-sum),mid_upslope,lipponen_tarvainen,0.5,100.0,True,False,589,300,0.4920756143071969,0.07973421926910298,0.004650645996651106,289,13,11,0.9633333333333334,0.956953642384106,0.9601328903654486,314.9999999999776,3.4945454545478847,4.595254469163622,-0.10545454545396916,4.602419951441571,275,835.9372822299648,839.9783393501807,4.041057120215896,4.041057120215896,0.48341630480170505,49.041543366872,64.48479963672654,15.443256269854537,15.443256269854537,31.490151430035528,30.456664157596386,70.83912167312853,40.382457515532145,40.382457515532145,132.5898900371205,8.741258741258742,10.144927536231885,1.403668794973143,1.403668794973143,16.057971014492754,30.508493098600006,70.96717903833279,40.45868593973278,40.45868593973278,132.6145011783272,21.57276235380305,50.18137353968493,28.608611185881877,28.608611185881877,132.61450117832723,65.91480771447272,76.14728175088159,10.232474036408874,10.232474036408874,15.523786522648324,0.3272824893497548,0.6590041349585529,0.33172164560879813,0.33172164560879813,101.35636839840197,1.8312472407351734,1.4814410219965353,-0.34980621873863815,0.34980621873863815,-19.10207485681752,1.0501995757324492,0.9721474543738208,-0.07805212135862838,0.07805212135862838,-7.432122728119735,302.03628100568375,2478.5483268453454,2176.512045839662,2176.512045839662,720.6127815481558,127.57773129988048,422.15706324512695,294.57933194524645,294.57933194524645,230.90184230727297,2.3674686634435136,5.871152096313897,3.503683432870383,3.503683432870383,147.99281135042483,pleth_6
s1_sit,terma,TERMA,mid_upslope,lipponen_tarvainen,0.5,100.0,True,False,612,300,0.4920756143071969,0.07920792079207921,0.0004340697413340442,292,12,8,0.9733333333333334,0.9605263157894737,0.9668874172185431,314.9999999999822,3.8243727598599495,5.397131854797873,0.003584229391201355,5.4068290204831015,279,835.9372822299648,836.4193548387099,0.48207260874505664,0.48207260874505664,0.057668514013284475,49.041543366872,49.81772298412714,0.7761796172551385,0.7761796172551385,1.582698186002553,30.456664157596386,32.288826942514106,1.8321627849177204,1.8321627849177204,6.015638401623013,8.741258741258742,10.431654676258994,1.690395935000252,1.690395935000252,19.338129496402882,30.508493098600006,32.345707784688344,1.8372146860883376,1.8372146860883376,6.021977814999473,21.57276235380305,22.871869316831628,1.2991069630285779,1.2991069630285779,6.021977814999473,65.91480771447272,66.63699153323351,0.7221838187607972,0.7221838187607972,1.0956321406399696,0.3272824893497548,0.34323082105867375,0.01594833170891896,0.01594833170891896,4.872956002200156,1.8312472407351734,1.7025983243019325,-0.12864891643324095,0.12864891643324095,-7.025207387157263,1.0501995757324492,1.0645259593002927,0.014326383567843548,0.014326383567843548,1.3641581942034002,302.03628100568375,342.6041901276909,40.567909122007165,40.567909122007165,13.431468890733612,127.57773129988048,137.51502338327728,9.937292083396798,9.937292083396798,7.789205829376673,2.3674686634435136,2.4913946251006767,0.12392596165716308,0.12392596165716308,5.23453440253402,pleth_6
s1_sit,heartpy,HeartPy,mid_upslope,lipponen_tarvainen,0.5,100.0,True,False,611,300,0.4920756143071969,0.07920792079207921,0.01981435364893134,292,12,8,0.9733333333333334,0.9605263157894737,0.9668874172185431,314.9999999999822,3.8243727598599495,5.397131854797873,0.003584229391201355,5.4068290204831015,279,835.9372822299648,836.4193548387099,0.48207260874505664,0.48207260874505664,0.057668514013284475,49.041543366872,49.81772298412714,0.7761796172551385,0.7761796172551385,1.582698186002553,30.456664157596386,32.288826942514106,1.8321627849177204,1.8321627849177204,6.015638401623013,8.741258741258742,10.431654676258994,1.690395935000252,1.690395935000252,19.338129496402882,30.508493098600006,32.345707784688344,1.8372146860883376,1.8372146860883376,6.021977814999473,21.57276235380305,22.871869316831628,1.2991069630285779,1.2991069630285779,6.021977814999473,65.91480771447272,66.63699153323351,0.7221838187607972,0.7221838187607972,1.0956321406399696,0.3272824893497548,0.34323082105867375,0.01594833170891896,0.01594833170891896,4.872956002200156,1.8312472407351734,1.7025983243019325,-0.12864891643324095,0.12864891643324095,-7.025207387157263,1.0501995757324492,1.0645259593002927,0.014326383567843548,0.014326383567843548,1.3641581942034002,302.03628100568375,342.6041901276909,40.567909122007165,40.567909122007165,13.431468890733612,127.57773129988048,137.51502338327728,9.937292083396798,9.937292083396798,7.789205829376673,2.3674686634435136,2.4913946251006767,0.12392596165716308,0.12392596165716308,5.23453440253402,pleth_6
s1_sit,findpeaks,find_peaks baseline,mid_upslope,lipponen_tarvainen,0.5,100.0,True,False,613,300,0.4920756143071969,0.07920792079207921,0.00014308771540778254,292,12,8,0.9733333333333334,0.9605263157894737,0.9668874172185431,314.9999999999822,3.8243727598599495,5.397131854797873,0.003584229391201355,5.4068290204831015,279,835.9372822299648,836.4193548387099,0.48207260874505664,0.48207260874505664,0.057668514013284475,49.041543366872,49.81772298412714,0.7761796172551385,0.7761796172551385,1.582698186002553,30.456664157596386,32.288826942514106,1.8321627849177204,1.8321627849177204,6.015638401623013,8.741258741258742,10.431654676258994,1.690395935000252,1.690395935000252,19.338129496402882,30.508493098600006,32.345707784688344,1.8372146860883376,1.8372146860883376,6.021977814999473,21.57276235380305,22.871869316831628,1.2991069630285779,1.2991069630285779,6.021977814999473,65.91480771447272,66.63699153323351,0.7221838187607972,0.7221838187607972,1.0956321406399696,0.3272824893497548,0.34323082105867375,0.01594833170891896,0.01594833170891896,4.872956002200156,1.8312472407351734,1.7025983243019325,-0.12864891643324095,0.12864891643324095,-7.025207387157263,1.0501995757324492,1.0645259593002927,0.014326383567843548,0.014326383567843548,1.3641581942034002,302.03628100568375,342.6041901276909,40.567909122007165,40.567909122007165,13.431468890733612,127.57773129988048,137.51502338327728,9.937292083396798,9.937292083396798,7.789205829376673,2.3674686634435136,2.4913946251006767,0.12392596165716308,0.12392596165716308,5.23453440253402,pleth_6
s2_sit,msptdfast,MSPTDfast v2,mid_upslope,lipponen_tarvainen,1.0,100.0,True,False,990,991,0.9951016628351869,0.0,0.02243870986058314,990,0,1,0.9989909182643795,1.0,0.999495204442201,234.00000000000574,2.760364004043972,3.35285821958554,0.006066734074812995,3.35454908962852,989,496.8181818181818,496.82103134479274,0.0028495266109302975,0.0028495266109302975,0.0005735552190344606,17.9894720567605,19.0897974570566,1.1003254002961,1.1003254002961,6.11649634199573,4.648624180821078,5.908718597597268,1.26009441677619,1.26009441677619,27.106824896170075,0.0,0.0,0.0,0.0,,4.650954564424282,5.9116889080349075,1.2607343436106255,1.2607343436106255,27.10700193147738,3.2887215114949355,4.18019531513678,0.8914738036418446,0.8914738036418446,27.107001931477388,25.22749532913968,26.67145854710983,1.4439632179701505,1.4439632179701505,5.723767655611308,0.13036258528987663,0.15672916079011187,0.026366575500235245,0.026366575500235245,20.225569661422444,0.745467018693734,0.9290648567347047,0.18359783804097074,0.18359783804097074,24.628566178914973,1.6151323746822592,1.5393332557824133,-0.07579911889984592,0.07579911889984592,-4.693059224619758,99.94805062404777,119.87365928156653,19.925608657518765,19.925608657518765,19.935965267065058,19.90885704317436,38.54597279798683,18.637115754812466,18.637115754812466,93.61218333325718,5.020280692522949,3.109888026689711,-1.9103926658332377,1.9103926658332377,-38.05350303775878,pleth_6
s2_sit,msptd,MSPTD,mid_upslope,lipponen_tarvainen,1.0,100.0,True,False,990,991,0.9951016628351869,0.0,0.9146546672298402,990,0,1,0.9989909182643795,1.0,0.999495204442201,234.00000000000574,2.760364004043972,3.35285821958554,0.006066734074812995,3.35454908962852,989,496.8181818181818,496.82103134479274,0.0028495266109302975,0.0028495266109302975,0.0005735552190344606,17.9894720567605,19.0897974570566,1.1003254002961,1.1003254002961,6.11649634199573,4.648624180821078,5.908718597597268,1.26009441677619,1.26009441677619,27.106824896170075,0.0,0.0,0.0,0.0,,4.650954564424282,5.9116889080349075,1.2607343436106255,1.2607343436106255,27.10700193147738,3.2887215114949355,4.18019531513678,0.8914738036418446,0.8914738036418446,27.107001931477388,25.22749532913968,26.67145854710983,1.4439632179701505,1.4439632179701505,5.723767655611308,0.13036258528987663,0.15672916079011187,0.026366575500235245,0.026366575500235245,20.225569661422444,0.745467018693734,0.9290648567347047,0.18359783804097074,0.18359783804097074,24.628566178914973,1.6151323746822592,1.5393332557824133,-0.07579911889984592,0.07579911889984592,-4.693059224619758,99.94805062404777,119.87365928156653,19.925608657518765,19.925608657518765,19.935965267065058,19.90885704317436,38.54597279798683,18.637115754812466,18.637115754812466,93.61218333325718,5.020280692522949,3.109888026689711,-1.9103926658332377,1.9103926658332377,-38.05350303775878,pleth_6
s2_sit,qppg,qppg (slope-sum),mid_upslope,lipponen_tarvainen,1.0,100.0,True,False,991,991,0.9951016628351869,0.0,0.004461507843577844,991,0,0,1.0,1.0,1.0,234.9999999999298,2.9848484848481824,3.780732653062565,0.0030303030303168105,3.782642346752194,990,496.8181818181818,496.8212121212121,0.0030303030303002743,0.0030303030303002743,0.0006099420555041724,17.9894720567605,19.159047857561863,1.1695758008013613,1.1695758008013613,6.501445940776405,4.648624180821078,6.433685994060867,1.785061813239789,1.785061813239789,38.39978763188589,0.0,0.0,0.0,0.0,,4.650954564424282,6.436918110617743,1.7859635461934609,1.7859635461934609,38.39993535637853,3.2887215114949355,4.551588445960306,1.2628669344653702,1.2628669344653702,38.399935356378535,25.22749532913968,26.70994706537795,1.4824517362382714,1.4824517362382714,5.876333408833999,0.13036258528987663,0.1704079920046034,0.04004540671472678,0.04004540671472678,30.718481553339167,0.745467018693734,0.9543396542121744,0.20887263551844037,0.20887263551844037,28.0190310611519,1.6151323746822592,1.5147124782234598,-0.10041989645879945,0.10041989645879945,-6.217440627958113,99.94805062404777,119.98966602533437,20.041615401286606,20.041615401286606,20.0520323069358,19.90885704317436,39.238917450415855,19.330060407241493,19.330060407241493,97.0927681349176,5.020280692522949,3.0579249842190213,-1.9623557083039276,1.9623557083039276,-39.088565530341754,pleth_6
s2_sit,terma,TERMA,mid_upslope,lipponen_tarvainen,1.0,100.0,True,False,991,991,0.9951016628351869,0.0,0.0004942690259841202,991,0,0,1.0,1.0,1.0,234.00000000000574,2.7585858585853176,3.351315134586464,0.005050505050518888,3.353005193791906,990,496.8181818181818,496.82323232323233,0.005050505050519405,0.005050505050519405,0.0010165700925107678,17.9894720567605,19.080269632219164,1.0907975754586623,1.0907975754586623,6.06353300428701,4.648624180821078,5.905730623399828,1.25710644257875,1.25710644257875,27.042548368724216,0.0,0.0,0.0,0.0,,4.650954564424282,5.908696427671396,1.257741863247114,1.257741863247114,27.042660723192927,3.2887215114949355,4.1780793119791735,0.889357800484238,0.889357800484238,27.042660723192935,25.22749532913968,26.658151318858952,1.4306559897192734,1.4306559897192734,5.671018747813449,0.13036258528987663,0.15672802145974193,0.02636543616986531,0.02636543616986531,20.224695691051725,0.745467018693734,0.9305285145369274,0.18506149584319342,0.18506149584319342,24.824907232981648,1.6151323746822592,1.537156854270568,-0.0779755204116912,0.0779755204116912,-4.827809883201129,99.94805062404777,119.87365928156653,19.925608657518765,19.925608657518765,19.935965267065058,19.90885704317436,38.545972797986835,18.637115754812474,18.637115754812474,93.6121833332572,5.020280692522949,3.10988802668971,-1.9103926658332386,1.9103926658332386,-38.053503037758794,pleth_6
s2_sit,heartpy,HeartPy,mid_upslope,lipponen_tarvainen,1.0,100.0,True,False,991,991,0.9951016628351869,0.0,0.0267841076172759,991,0,0,1.0,1.0,1.0,234.00000000000574,2.7585858585853176,3.351315134586464,0.005050505050518888,3.353005193791906,990,496.8181818181818,496.82323232323233,0.005050505050519405,0.005050505050519405,0.0010165700925107678,17.9894720567605,19.080269632219164,1.0907975754586623,1.0907975754586623,6.06353300428701,4.648624180821078,5.905730623399828,1.25710644257875,1.25710644257875,27.042548368724216,0.0,0.0,0.0,0.0,,4.650954564424282,5.908696427671396,1.257741863247114,1.257741863247114,27.042660723192927,3.2887215114949355,4.1780793119791735,0.889357800484238,0.889357800484238,27.042660723192935,25.22749532913968,26.658151318858952,1.4306559897192734,1.4306559897192734,5.671018747813449,0.13036258528987663,0.15672802145974193,0.02636543616986531,0.02636543616986531,20.224695691051725,0.745467018693734,0.9305285145369274,0.18506149584319342,0.18506149584319342,24.824907232981648,1.6151323746822592,1.537156854270568,-0.0779755204116912,0.0779755204116912,-4.827809883201129,99.94805062404777,119.87365928156653,19.925608657518765,19.925608657518765,19.935965267065058,19.90885704317436,38.545972797986835,18.637115754812474,18.637115754812474,93.6121833332572,5.020280692522949,3.10988802668971,-1.9103926658332386,1.9103926658332386,-38.053503037758794,pleth_6
s2_sit,findpeaks,find_peaks baseline,mid_upslope,lipponen_tarvainen,1.0,100.0,True,False,991,991,0.9951016628351869,0.0,0.00017930107305495416,991,0,0,1.0,1.0,1.0,234.00000000000574,2.7585858585853176,3.351315134586464,0.005050505050518888,3.353005193791906,990,496.8181818181818,496.82323232323233,0.005050505050519405,0.005050505050519405,0.0010165700925107678,17.9894720567605,19.080269632219164,1.0907975754586623,1.0907975754586623,6.06353300428701,4.648624180821078,5.905730623399828,1.25710644257875,1.25710644257875,27.042548368724216,0.0,0.0,0.0,0.0,,4.650954564424282,5.908696427671396,1.257741863247114,1.257741863247114,27.042660723192927,3.2887215114949355,4.1780793119791735,0.889357800484238,0.889357800484238,27.042660723192935,25.22749532913968,26.658151318858952,1.4306559897192734,1.4306559897192734,5.671018747813449,0.13036258528987663,0.15672802145974193,0.02636543616986531,0.02636543616986531,20.224695691051725,0.745467018693734,0.9305285145369274,0.18506149584319342,0.18506149584319342,24.824907232981648,1.6151323746822592,1.537156854270568,-0.0779755204116912,0.0779755204116912,-4.827809883201129,99.94805062404777,119.87365928156653,19.925608657518765,19.925608657518765,19.935965267065058,19.90885704317436,38.545972797986835,18.637115754812474,18.637115754812474,93.6121833332572,5.020280692522949,3.10988802668971,-1.9103926658332386,1.9103926658332386,-38.053503037758794,pleth_6
s2_sit,msptdfast,MSPTDfast v2,mid_upslope,lipponen_tarvainen,0.9,100.0,True,False,990,889,0.8935606768315963,0.009019165727170236,0.022425720738043754,884,4,5,0.9943757030371203,0.9954954954954955,0.9949352841868317,234.00000000000574,2.770193401592243,3.37443375774848,-0.017064846416295985,3.3763116960531665,879,495.1131221719457,495.0068259385666,-0.10629623337911198,0.10629623337911198,-0.021469080220054605,16.329308176704693,17.346855420768055,1.017547244063362,1.017547244063362,6.231416744984883,4.190805878005968,5.544497980770964,1.3536921027649962,1.3536921027649962,32.30147475618933,0.0,0.0,0.0,0.0,,4.193106840490139,5.547606520795842,1.354499680305703,1.354499680305703,32.30300900578467,2.9649742811502766,3.92275019020945,0.9577759090591735,0.9577759090591735,32.30300900578468,22.901998571559357,24.216498857664618,1.314500286105261,1.314500286105261,5.739674998223349,0.12946356065327433,0.16198667748240098,0.03252311682912665,0.03252311682912665,25.12144472546151,0.7209677313931827,0.920722725744774,0.19975499435159128,0.19975499435159128,27.706509688802438,1.6611844957302855,1.538915623018002,-0.12226887271228337,0.12226887271228337,-7.360342757023617,71.40871398824643,85.38103824957881,13.972324261332375,13.972324261332375,19.566693588169308,9.945496828630118,24.14911672912929,14.203619900499172,14.203619900499172,142.81458377837083,7.180004701492845,3.535576029850814,-3.6444286716420313,3.6444286716420313,-50.75802625706209,pleth_6
s2_sit,msptd,MSPTD,mid_upslope,lipponen_tarvainen,0.9,100.0,True,False,990,889,0.8935606768315963,0.009019165727170236,0.9164369308630484,884,4,5,0.9943757030371203,0.9954954954954955,0.9949352841868317,234.00000000000574,2.770193401592243,3.37443375774848,-0.017064846416295985,3.3763116960531665,879,495.1131221719457,495.0068259385666,-0.10629623337911198,0.10629623337911198,-0.021469080220054605,16.329308176704693,17.346855420768055,1.017547244063362,1.017547244063362,6.231416744984883,4.190805878005968,5.544497980770964,1.3536921027649962,1.3536921027649962,32.30147475618933,0.0,0.0,0.0,0.0,,4.193106840490139,5.547606520795842,1.354499680305703,1.354499680305703,32.30300900578467,2.9649742811502766,3.92275019020945,0.9577759090591735,0.9577759090591735,32.30300900578468,22.901998571559357,24.216498857664618,1.314500286105261,1.314500286105261,5.739674998223349,0.12946356065327433,0.16198667748240098,0.03252311682912665,0.03252311682912665,25.12144472546151,0.7209677313931827,0.920722725744774,0.19975499435159128,0.19975499435159128,27.706509688802438,1.6611844957302855,1.538915623018002,-0.12226887271228337,0.12226887271228337,-7.360342757023617,71.40871398824643,85.38103824957881,13.972324261332375,13.972324261332375,19.566693588169308,9.945496828630118,24.14911672912929,14.203619900499172,14.203619900499172,142.81458377837083,7.180004701492845,3.535576029850814,-3.6444286716420313,3.6444286716420313,-50.75802625706209,pleth_6
s2_sit,qppg,qppg (slope-sum),mid_upslope,lipponen_tarvainen,0.9,100.0,True,False,991,889,0.8935606768315963,0.013528748590755355,0.004428206460907261,880,8,9,0.9898762654668166,0.990990990990991,0.9904333145751266,234.9999999999298,3.02399999999982,3.852123718528591,-0.018285714285665628,3.8542833951786313,875,495.1131221719457,494.9188571428571,-0.19426502908856946,0.19426502908856946,-0.039236493720136954,16.329308176704693,17.42736606424599,1.098057887541298,1.098057887541298,6.724460556802901,4.190805878005968,6.202623642118477,2.011817764112509,2.011817764112509,48.005510698332664,0.0,0.0,0.0,0.0,,4.193106840490139,6.206128536596883,2.013021696106744,2.013021696106744,48.00787990108639,2.9649742811502766,4.388395573143001,1.423421291992724,1.423421291992724,48.007879901086376,22.901998571559357,24.252178462317246,1.3501798907578895,1.3501798907578895,5.895467535460413,0.12946356065327433,0.18094851066520226,0.05148495001192793,0.05148495001192793,39.76790824548189,0.7209677313931827,0.9462589011127913,0.2252911697196086,0.2252911697196086,31.24844010483808,1.6611844957302855,1.4949153332204093,-0.16626916250987622,0.16626916250987622,-10.00907261879912,71.40871398824643,86.57018294561718,15.161468957370744,15.161468957370744,21.231959113374113,9.945496828630118,24.7757122184239,14.830215389793784,14.830215389793784,149.1148772688964,7.180004701492845,3.494155170289765,-3.6858495312030803,3.6858495312030803,-51.3349180737546,pleth_6
s2_sit,terma,TERMA,mid_upslope,lipponen_tarvainen,0.9,100.0,True,False,991,889,0.8935606768315963,0.009019165727170236,0.0005315792462774639,884,4,5,0.9943757030371203,0.9954954954954955,0.9949352841868317,234.00000000000574,2.770193401592243,3.37443375774848,-0.017064846416295985,3.3763116960531665,879,495.1131221719457,495.0068259385666,-0.10629623337911198,0.10629623337911198,-0.021469080220054605,16.329308176704693,17.346855420768055,1.017547244063362,1.017547244063362,6.231416744984883,4.190805878005968,5.544497980770964,1.3536921027649962,1.3536921027649962,32.30147475618933,0.0,0.0,0.0,0.0,,4.193106840490139,5.547606520795842,1.354499680305703,1.354499680305703,32.30300900578467,2.9649742811502766,3.92275019020945,0.9577759090591735,0.9577759090591735,32.30300900578468,22.901998571559357,24.216498857664618,1.314500286105261,1.314500286105261,5.739674998223349,0.12946356065327433,0.16198667748240098,0.03252311682912665,0.03252311682912665,25.12144472546151,0.7209677313931827,0.920722725744774,0.19975499435159128,0.19975499435159128,27.706509688802438,1.6611844957302855,1.538915623018002,-0.12226887271228337,0.12226887271228337,-7.360342757023617,71.40871398824643,85.38103824957881,13.972324261332375,13.972324261332375,19.566693588169308,9.945496828630118,24.14911672912929,14.203619900499172,14.203619900499172,142.81458377837083,7.180004701492845,3.535576029850814,-3.6444286716420313,3.6444286716420313,-50.75802625706209,pleth_6
s2_sit,heartpy,HeartPy,mid_upslope,lipponen_tarvainen,0.9,100.0,True,False,991,889,0.8935606768315963,0.009019165727170236,0.026710973737404872,884,4,5,0.9943757030371203,0.9954954954954955,0.9949352841868317,234.00000000000574,2.770193401592243,3.37443375774848,-0.017064846416295985,3.3763116960531665,879,495.1131221719457,495.0068259385666,-0.10629623337911198,0.10629623337911198,-0.021469080220054605,16.329308176704693,17.346855420768055,1.017547244063362,1.017547244063362,6.231416744984883,4.190805878005968,5.544497980770964,1.3536921027649962,1.3536921027649962,32.30147475618933,0.0,0.0,0.0,0.0,,4.193106840490139,5.547606520795842,1.354499680305703,1.354499680305703,32.30300900578467,2.9649742811502766,3.92275019020945,0.9577759090591735,0.9577759090591735,32.30300900578468,22.901998571559357,24.216498857664618,1.314500286105261,1.314500286105261,5.739674998223349,0.12946356065327433,0.16198667748240098,0.03252311682912665,0.03252311682912665,25.12144472546151,0.7209677313931827,0.920722725744774,0.19975499435159128,0.19975499435159128,27.706509688802438,1.6611844957302855,1.538915623018002,-0.12226887271228337,0.12226887271228337,-7.360342757023617,71.40871398824643,85.38103824957881,13.972324261332375,13.972324261332375,19.566693588169308,9.945496828630118,24.14911672912929,14.203619900499172,14.203619900499172,142.81458377837083,7.180004701492845,3.535576029850814,-3.6444286716420313,3.6444286716420313,-50.75802625706209,pleth_6
s2_sit,findpeaks,find_peaks baseline,mid_upslope,lipponen_tarvainen,0.9,100.0,True,False,991,889,0.8935606768315963,0.009019165727170236,0.00015483375694090703,884,4,5,0.9943757030371203,0.9954954954954955,0.9949352841868317,234.00000000000574,2.770193401592243,3.37443375774848,-0.017064846416295985,3.3763116960531665,879,495.1131221719457,495.0068259385666,-0.10629623337911198,0.10629623337911198,-0.021469080220054605,16.329308176704693,17.346855420768055,1.017547244063362,1.017547244063362,6.231416744984883,4.190805878005968,5.544497980770964,1.3536921027649962,1.3536921027649962,32.30147475618933,0.0,0.0,0.0,0.0,,4.193106840490139,5.547606520795842,1.354499680305703,1.354499680305703,32.30300900578467,2.9649742811502766,3.92275019020945,0.9577759090591735,0.9577759090591735,32.30300900578468,22.901998571559357,24.216498857664618,1.314500286105261,1.314500286105261,5.739674998223349,0.12946356065327433,0.16198667748240098,0.03252311682912665,0.03252311682912665,25.12144472546151,0.7209677313931827,0.920722725744774,0.19975499435159128,0.19975499435159128,27.706509688802438,1.6611844957302855,1.538915623018002,-0.12226887271228337,0.12226887271228337,-7.360342757023617,71.40871398824643,85.38103824957881,13.972324261332375,13.972324261332375,19.566693588169308,9.945496828630118,24.14911672912929,14.203619900499172,14.203619900499172,142.81458377837083,7.180004701492845,3.535576029850814,-3.6444286716420313,3.6444286716420313,-50.75802625706209,pleth_6
s2_sit,msptdfast,MSPTDfast v2,mid_upslope,lipponen_tarvainen,0.75,100.0,True,False,990,753,0.7514032964265697,0.010680907877169559,0.022234819623076257,746,4,7,0.9907038512616202,0.9946666666666667,0.9926813040585495,234.00000000000574,2.835357624831068,3.4627378339023487,-0.009446693657255414,3.465063837238359,741,492.41711229946526,492.2145748987854,-0.20253740067988701,0.20253740067988701,-0.04113126770393657,14.95042503694247,15.908135033945042,0.9577099970025724,0.9577099970025724,6.4059048129807215,4.213194039688203,5.516314868617907,1.3031208289297043,1.3031208289297043,30.92952322286447,0.0,0.0,0.0,0.0,,4.215975238062479,5.52004589026098,1.3040706521985008,1.3040706521985008,30.931648754128073,2.981144680148548,3.903261881464472,0.922117201315924,0.922117201315924,30.931648754128084,20.93187029308405,22.156309873288144,1.2244395802040948,1.2244395802040948,5.849642497587295,0.1424213239623182,0.17616931266024047,0.033747988697922254,0.033747988697922254,23.695881879915177,0.7033446803543422,0.9143762809431403,0.2110316005887981,0.2110316005887981,30.00400891387723,1.6610495400411431,1.566566471515329,-0.09448306852581423,0.09448306852581423,-5.688154762890091,57.18591867517699,66.60919725591053,9.423278580733538,9.423278580733538,16.47831983649491,7.358903801290116,18.829407259141583,11.470503457851468,11.470503457851468,155.8724474131668,7.770983317535897,3.537508979395626,-4.2334743381402715,4.2334743381402715,-54.477974860492495,pleth_6
s2_sit,msptd,MSPTD,mid_upslope,lipponen_tarvainen,0.75,100.0,True,False,990,753,0.7514032964265697,0.010680907877169559,0.9044646881068139,746,4,7,0.9907038512616202,0.9946666666666667,0.9926813040585495,234.00000000000574,2.835357624831068,3.4627378339023487,-0.009446693657255414,3.465063837238359,741,492.41711229946526,492.2145748987854,-0.20253740067988701,0.20253740067988701,-0.04113126770393657,14.95042503694247,15.908135033945042,0.9577099970025724,0.9577099970025724,6.4059048129807215,4.213194039688203,5.516314868617907,1.3031208289297043,1.3031208289297043,30.92952322286447,0.0,0.0,0.0,0.0,,4.215975238062479,5.52004589026098,1.3040706521985008,1.3040706521985008,30.931648754128073,2.981144680148548,3.903261881464472,0.922117201315924,0.922117201315924,30.931648754128084,20.93187029308405,22.156309873288144,1.2244395802040948,1.2244395802040948,5.849642497587295,0.1424213239623182,0.17616931266024047,0.033747988697922254,0.033747988697922254,23.695881879915177,0.7033446803543422,0.9143762809431403,0.2110316005887981,0.2110316005887981,30.00400891387723,1.6610495400411431,1.566566471515329,-0.09448306852581423,0.09448306852581423,-5.688154762890091,57.18591867517699,66.60919725591053,9.423278580733538,9.423278580733538,16.47831983649491,7.358903801290116,18.829407259141583,11.470503457851468,11.470503457851468,155.8724474131668,7.770983317535897,3.537508979395626,-4.2334743381402715,4.2334743381402715,-54.477974860492495,pleth_6
s2_sit,qppg,qppg (slope-sum),mid_upslope,lipponen_tarvainen,0.75,100.0,True,False,991,753,0.7514032964265697,0.01602136181575434,0.005875908791390702,742,8,11,0.9853917662682603,0.9893333333333333,0.9873586161011311,234.99999999998664,3.14382632293055,4.019119839920974,-0.017639077340567254,4.0218105598516445,737,492.41711229946526,492.0854816824966,-0.3316306169686527,0.3316306169686527,-0.06734750045952309,14.95042503694247,15.952017669762427,1.001592632819957,1.001592632819957,6.699425804584308,4.213194039688203,6.242604319965565,2.0294102802773626,2.0294102802773626,48.16797567736873,0.0,0.0,0.0,0.0,,4.215975238062479,6.246849546107321,2.030874308044842,2.030874308044842,48.170925903686374,2.981144680148548,4.417189675104594,1.4360449949560459,1.4360449949560459,48.170925903686395,20.93187029308405,22.12288794093065,1.1910176478466,1.1910176478466,5.6899724256370705,0.1424213239623182,0.19966605114570657,0.057244727183388355,0.057244727183388355,40.1939299472698,0.7033446803543422,0.9507600848236256,0.24741540446928345,0.24741540446928345,35.17697814173224,1.6610495400411431,1.489475756835402,-0.17157378320574113,0.17157378320574113,-10.329239379669033,57.18591867517699,65.77185598326955,8.585937308092554,8.585937308092554,15.014076029558478,7.358903801290116,19.566447807718486,12.207544006428371,12.207544006428371,165.8880770297367,7.770983317535897,3.3614612437380766,-4.40952207379782,4.40952207379782,-56.74342478444589,pleth_6
s2_sit,terma,TERMA,mid_upslope,lipponen_tarvainen,0.75,100.0,True,False,991,753,0.7514032964265697,0.010680907877169559,0.0004976564333600751,746,4,7,0.9907038512616202,0.9946666666666667,0.9926813040585495,234.00000000000574,2.835357624831068,3.4627378339023487,-0.009446693657255414,3.465063837238359,741,492.41711229946526,492.2145748987854,-0.20253740067988701,0.20253740067988701,-0.04113126770393657,14.95042503694247,15.908135033945042,0.9577099970025724,0.9577099970025724,6.4059048129807215,4.213194039688203,5.516314868617907,1.3031208289297043,1.3031208289297043,30.92952322286447,0.0,0.0,0.0,0.0,,4.215975238062479,5.52004589026098,1.3040706521985008,1.3040706521985008,30.931648754128073,2.981144680148548,3.903261881464472,0.922117201315924,0.922117201315924,30.931648754128084,20.93187029308405,22.156309873288144,1.2244395802040948,1.2244395802040948,5.849642497587295,0.1424213239623182,0.17616931266024047,0.033747988697922254,0.033747988697922254,23.695881879915177,0.7033446803543422,0.9143762809431403,0.2110316005887981,0.2110316005887981,30.00400891387723,1.6610495400411431,1.566566471515329,-0.09448306852581423,0.09448306852581423,-5.688154762890091,57.18591867517699,66.60919725591053,9.423278580733538,9.423278580733538,16.47831983649491,7.358903801290116,18.829407259141583,11.470503457851468,11.470503457851468,155.8724474131668,7.770983317535897,3.537508979395626,-4.2334743381402715,4.2334743381402715,-54.477974860492495,pleth_6
s2_sit,heartpy,HeartPy,mid_upslope,lipponen_tarvainen,0.75,100.0,True,False,991,753,0.7514032964265697,0.010680907877169559,0.030369751346577083,746,4,7,0.9907038512616202,0.9946666666666667,0.9926813040585495,234.00000000000574,2.835357624831068,3.4627378339023487,-0.009446693657255414,3.465063837238359,741,492.41711229946526,492.2145748987854,-0.20253740067988701,0.20253740067988701,-0.04113126770393657,14.95042503694247,15.908135033945042,0.9577099970025724,0.9577099970025724,6.4059048129807215,4.213194039688203,5.516314868617907,1.3031208289297043,1.3031208289297043,30.92952322286447,0.0,0.0,0.0,0.0,,4.215975238062479,5.52004589026098,1.3040706521985008,1.3040706521985008,30.931648754128073,2.981144680148548,3.903261881464472,0.922117201315924,0.922117201315924,30.931648754128084,20.93187029308405,22.156309873288144,1.2244395802040948,1.2244395802040948,5.849642497587295,0.1424213239623182,0.17616931266024047,0.033747988697922254,0.033747988697922254,23.695881879915177,0.7033446803543422,0.9143762809431403,0.2110316005887981,0.2110316005887981,30.00400891387723,1.6610495400411431,1.566566471515329,-0.09448306852581423,0.09448306852581423,-5.688154762890091,57.18591867517699,66.60919725591053,9.423278580733538,9.423278580733538,16.47831983649491,7.358903801290116,18.829407259141583,11.470503457851468,11.470503457851468,155.8724474131668,7.770983317535897,3.537508979395626,-4.2334743381402715,4.2334743381402715,-54.477974860492495,pleth_6
s2_sit,findpeaks,find_peaks baseline,mid_upslope,lipponen_tarvainen,0.75,100.0,True,False,991,753,0.7514032964265697,0.010680907877169559,0.0001625955504995561,746,4,7,0.9907038512616202,0.9946666666666667,0.9926813040585495,234.00000000000574,2.835357624831068,3.4627378339023487,-0.009446693657255414,3.465063837238359,741,492.41711229946526,492.2145748987854,-0.20253740067988701,0.20253740067988701,-0.04113126770393657,14.95042503694247,15.908135033945042,0.9577099970025724,0.9577099970025724,6.4059048129807215,4.213194039688203,5.516314868617907,1.3031208289297043,1.3031208289297043,30.92952322286447,0.0,0.0,0.0,0.0,,4.215975238062479,5.52004589026098,1.3040706521985008,1.3040706521985008,30.931648754128073,2.981144680148548,3.903261881464472,0.922117201315924,0.922117201315924,30.931648754128084,20.93187029308405,22.156309873288144,1.2244395802040948,1.2244395802040948,5.849642497587295,0.1424213239623182,0.17616931266024047,0.033747988697922254,0.033747988697922254,23.695881879915177,0.7033446803543422,0.9143762809431403,0.2110316005887981,0.2110316005887981,30.00400891387723,1.6610495400411431,1.566566471515329,-0.09448306852581423,0.09448306852581423,-5.688154762890091,57.18591867517699,66.60919725591053,9.423278580733538,9.423278580733538,16.47831983649491,7.358903801290116,18.829407259141583,11.470503457851468,11.470503457851468,155.8724474131668,7.770983317535897,3.537508979395626,-4.2334743381402715,4.2334743381402715,-54.477974860492495,pleth_6
s2_sit,msptdfast,MSPTDfast v2,mid_upslope,lipponen_tarvainen,0.5,100.0,True,False,990,491,0.4873967328172344,0.02857142857142857,0.023059957921791305,482,9,9,0.9816700610997964,0.9816700610997964,0.9816700610997964,234.00000000000574,2.8713080168772414,3.501355976029934,-0.01898734177219759,3.505003706247168,474,488.0703933747413,487.83403361344557,-0.23635976129571645,0.23635976129571645,-0.04842739172548805,11.074400091959992,12.080771032858168,1.0063709408981758,1.0063709408981758,9.08736304035828,3.656404600944044,5.158335104724813,1.5019305037807689,1.5019305037807689,41.07670424090886,0.0,0.0,0.0,0.0,,3.65980513391569,5.163618264986546,1.503813131070856,1.503813131070856,41.089978183125275,2.5878730280131252,3.651229490630702,1.0633564626175769,1.0633564626175769,41.08997818312528,15.446280716874504,16.69007431689382,1.2437936000193162,1.2437936000193162,8.052382465511691,0.16754020436686531,0.21876652082578804,0.05122631645892273,0.05122631645892273,30.575536571957198,0.7261396088904469,1.1487863887586451,0.4226467798681982,0.4226467798681982,58.204617224229004,1.6035831986955318,1.4035956761851238,-0.19998752251040797,0.19998752251040797,-12.471290711519801,29.500780278265847,35.90439585691768,6.403615578651834,6.403615578651834,21.706597311155118,2.8230832008033855,9.207933653790768,6.384850452987383,6.384850452987383,226.1658618906591,10.449844435994871,3.8992891572515167,-6.550555278743355,6.550555278743355,-62.6856726802528,pleth_6
s2_sit,msptd,MSPTD,mid_upslope,lipponen_tarvainen,0.5,100.0,True,False,990,491,0.4873967328172344,0.02857142857142857,0.9043672940542444,482,9,9,0.9816700610997964,0.9816700610997964,0.9816700610997964,234.00000000000574,2.8713080168772414,3.501355976029934,-0.01898734177219759,3.505003706247168,474,488.0703933747413,487.83403361344557,-0.23635976129571645,0.23635976129571645,-0.04842739172548805,11.074400091959992,12.080771032858168,1.0063709408981758,1.0063709408981758,9.08736304035828,3.656404600944044,5.158335104724813,1.5019305037807689,1.5019305037807689,41.07670424090886,0.0,0.0,0.0,0.0,,3.65980513391569,5.163618264986546,1.503813131070856,1.503813131070856,41.089978183125275,2.5878730280131252,3.651229490630702,1.0633564626175769,1.0633564626175769,41.08997818312528,15.446280716874504,16.69007431689382,1.2437936000193162,1.2437936000193162,8.052382465511691,0.16754020436686531,0.21876652082578804,0.05122631645892273,0.05122631645892273,30.575536571957198,0.7261396088904469,1.1487863887586451,0.4226467798681982,0.4226467798681982,58.204617224229004,1.6035831986955318,1.4035956761851238,-0.19998752251040797,0.19998752251040797,-12.471290711519801,29.500780278265847,35.90439585691768,6.403615578651834,6.403615578651834,21.706597311155118,2.8230832008033855,9.207933653790768,6.384850452987383,6.384850452987383,226.1658618906591,10.449844435994871,3.8992891572515167,-6.550555278743355,6.550555278743355,-62.6856726802528,pleth_6
s2_sit,qppg,qppg (slope-sum),mid_upslope,lipponen_tarvainen,0.5,100.0,True,False,991,491,0.4873967328172344,0.02857142857142857,0.006973648083029702,483,8,8,0.9837067209775967,0.9837067209775967,0.9837067209775967,234.99999999998664,3.328421052631391,4.31179532762896,-0.014736842105288648,4.316316028173666,475,488.0703933747413,487.8529411764707,-0.21745219827056417,0.21745219827056417,-0.04455344991672216,11.074400091959992,12.374992260059601,1.3005921680996089,1.3005921680996089,11.744132027917594,3.656404600944044,6.3622240401330385,2.7058194391889945,2.7058194391889945,74.00218888496042,0.0,0.0,0.0,0.0,,3.65980513391569,6.368805834983332,2.7090007010676422,2.7090007010676422,74.02035359651062,2.5878730280131252,4.503425793977167,1.9155527659640414,1.9155527659640414,74.02035359651062,15.446280716874504,16.911535205037158,1.4652544881626532,1.4652544881626532,9.486131419079518,0.16754020436686531,0.2662931389360681,0.09875293456920278,0.09875293456920278,58.94282804679049,0.7261396088904469,1.2073849450968726,0.4812453362064256,0.4812453362064256,66.27449189030966,1.6035831986955318,1.3051085293816842,-0.2984746693138476,0.2984746693138476,-18.612983071701425,29.500780278265847,37.06038815006811,7.55960787180226,7.55960787180226,25.62511160890094,2.8230832008033855,9.745082633152354,6.921999432348969,6.921999432348969,245.1928951431231,10.449844435994871,3.802983468194539,-6.6468609678003325,6.6468609678003325,-63.60727194086237,pleth_6
s2_sit,terma,TERMA,mid_upslope,lipponen_tarvainen,0.5,100.0,True,False,991,491,0.4873967328172344,0.02857142857142857,0.0005258035953433959,482,9,9,0.9816700610997964,0.9816700610997964,0.9816700610997964,234.00000000000574,2.8713080168772414,3.501355976029934,-0.01898734177219759,3.505003706247168,474,488.0703933747413,487.83403361344557,-0.23635976129571645,0.23635976129571645,-0.04842739172548805,11.074400091959992,12.080771032858168,1.0063709408981758,1.0063709408981758,9.08736304035828,3.656404600944044,5.158335104724813,1.5019305037807689,1.5019305037807689,41.07670424090886,0.0,0.0,0.0,0.0,,3.65980513391569,5.163618264986546,1.503813131070856,1.503813131070856,41.089978183125275,2.5878730280131252,3.651229490630702,1.0633564626175769,1.0633564626175769,41.08997818312528,15.446280716874504,16.69007431689382,1.2437936000193162,1.2437936000193162,8.052382465511691,0.16754020436686531,0.21876652082578804,0.05122631645892273,0.05122631645892273,30.575536571957198,0.7261396088904469,1.1487863887586451,0.4226467798681982,0.4226467798681982,58.204617224229004,1.6035831986955318,1.4035956761851238,-0.19998752251040797,0.19998752251040797,-12.471290711519801,29.500780278265847,35.90439585691768,6.403615578651834,6.403615578651834,21.706597311155118,2.8230832008033855,9.207933653790768,6.384850452987383,6.384850452987383,226.1658618906591,10.449844435994871,3.8992891572515167,-6.550555278743355,6.550555278743355,-62.6856726802528,pleth_6
s2_sit,heartpy,HeartPy,mid_upslope,lipponen_tarvainen,0.5,100.0,True,False,991,491,0.4873967328172344,0.02857142857142857,0.02954829289284474,482,9,9,0.9816700610997964,0.9816700610997964,0.9816700610997964,234.00000000000574,2.8713080168772414,3.501355976029934,-0.01898734177219759,3.505003706247168,474,488.0703933747413,487.83403361344557,-0.23635976129571645,0.23635976129571645,-0.04842739172548805,11.074400091959992,12.080771032858168,1.0063709408981758,1.0063709408981758,9.08736304035828,3.656404600944044,5.158335104724813,1.5019305037807689,1.5019305037807689,41.07670424090886,0.0,0.0,0.0,0.0,,3.65980513391569,5.163618264986546,1.503813131070856,1.503813131070856,41.089978183125275,2.5878730280131252,3.651229490630702,1.0633564626175769,1.0633564626175769,41.08997818312528,15.446280716874504,16.69007431689382,1.2437936000193162,1.2437936000193162,8.052382465511691,0.16754020436686531,0.21876652082578804,0.05122631645892273,0.05122631645892273,30.575536571957198,0.7261396088904469,1.1487863887586451,0.4226467798681982,0.4226467798681982,58.204617224229004,1.6035831986955318,1.4035956761851238,-0.19998752251040797,0.19998752251040797,-12.471290711519801,29.500780278265847,35.90439585691768,6.403615578651834,6.403615578651834,21.706597311155118,2.8230832008033855,9.207933653790768,6.384850452987383,6.384850452987383,226.1658618906591,10.449844435994871,3.8992891572515167,-6.550555278743355,6.550555278743355,-62.6856726802528,pleth_6
s2_sit,findpeaks,find_peaks baseline,mid_upslope,lipponen_tarvainen,0.5,100.0,True,False,991,491,0.4873967328172344,0.02857142857142857,0.00015314005280964483,482,9,9,0.9816700610997964,0.9816700610997964,0.9816700610997964,234.00000000000574,2.8713080168772414,3.501355976029934,-0.01898734177219759,3.505003706247168,474,488.0703933747413,487.83403361344557,-0.23635976129571645,0.23635976129571645,-0.04842739172548805,11.074400091959992,12.080771032858168,1.0063709408981758,1.0063709408981758,9.08736304035828,3.656404600944044,5.158335104724813,1.5019305037807689,1.5019305037807689,41.07670424090886,0.0,0.0,0.0,0.0,,3.65980513391569,5.163618264986546,1.503813131070856,1.503813131070856,41.089978183125275,2.5878730280131252,3.651229490630702,1.0633564626175769,1.0633564626175769,41.08997818312528,15.446280716874504,16.69007431689382,1.2437936000193162,1.2437936000193162,8.052382465511691,0.16754020436686531,0.21876652082578804,0.05122631645892273,0.05122631645892273,30.575536571957198,0.7261396088904469,1.1487863887586451,0.4226467798681982,0.4226467798681982,58.204617224229004,1.6035831986955318,1.4035956761851238,-0.19998752251040797,0.19998752251040797,-12.471290711519801,29.500780278265847,35.90439585691768,6.403615578651834,6.403615578651834,21.706597311155118,2.8230832008033855,9.207933653790768,6.384850452987383,6.384850452987383,226.1658618906591,10.449844435994871,3.8992891572515167,-6.550555278743355,6.550555278743355,-62.6856726802528,pleth_6
s3_sit,msptdfast,MSPTDfast v2,mid_upslope,lipponen_tarvainen,1.0,100.0,True,False,603,603,0.9953320956006322,0.0,0.02189111879396208,602,1,1,0.9983416252072969,0.9983416252072969,0.9983416252072969,288.9999999999967,4.915141430948457,6.08481375250394,0.016638935108171615,6.089859551014323,601,815.7774086378738,815.953488372093,0.17607973421922907,0.17607973421922907,0.021584286639321663,61.9273119712334,64.09465101688056,2.167339045647161,2.167339045647161,3.4998112733424267,38.473190094833306,42.18635859983039,3.7131685049970855,3.7131685049970855,9.651314320035393,19.30116472545757,24.292845257903494,4.991680532445923,4.991680532445923,25.86206896551724,38.504571690160056,42.220516366081206,3.7159446759211505,3.7159446759211505,9.65065838369206,27.22684374879574,29.854413427653633,2.627569678857892,2.627569678857892,9.650658383692054,83.23871043837475,85.58599521441667,2.347284776041917,2.347284776041917,2.8199437060953922,0.3270935314279401,0.34882358209260805,0.021730050664667933,0.021730050664667933,6.643375235763457,1.4540556028720704,1.5384349900191248,0.0843793871470544,0.0843793871470544,5.803037172745463,1.077286974252094,1.0424029870607228,-0.03488398719137131,0.03488398719137131,-3.2381332017487265,901.0824037873131,944.0210498764415,42.93864608912838,42.93864608912838,4.7652296736296496,679.6120627362407,835.5662188246745,155.95415608843382,155.95415608843382,22.94752619024069,1.3258775898700104,1.1297980083545287,-0.19607958151548166,0.19607958151548166,-14.788663977245848,pleth_6
s3_sit,msptd,MSPTD,mid_upslope,lipponen_tarvainen,1.0,100.0,True,False,603,603,0.9953320956006322,0.0,0.8928387277622115,602,1,1,0.9983416252072969,0.9983416252072969,0.9983416252072969,288.9999999999967,4.908485856905447,6.079615978764796,0.016638935108171236,6.084657428134239,601,815.7774086378738,815.9534883720929,0.17607973421911538,0.17607973421911538,0.021584286639307726,61.9273119712334,64.1015300327257,2.1742180614923043,2.1742180614923043,3.5109194833166284,38.473190094833306,42.20260537178231,3.7294152769490054,3.7294152769490054,9.693543134209296,19.30116472545757,24.292845257903494,4.991680532445923,4.991680532445923,25.86206896551724,38.504571690160056,42.236777049768584,3.7322053596085283,3.7322053596085283,9.69288891106482,27.22684374879574,29.86591146735571,2.639067718559968,2.639067718559968,9.692888911064822,83.23871043837475,85.59228725356591,2.353576815191161,2.353576815191161,2.827502736162181,0.3270935314279401,0.3489322744569073,0.021838743028967156,0.021838743028967156,6.676604986234131,1.4540556028720704,1.5414033543889605,0.08734775151689012,0.08734775151689012,6.007180973297007,1.077286974252094,1.0422299504935104,-0.03505702375858366,0.03505702375858366,-3.2541954554794446,901.0824037873131,944.1501524570548,43.06774866974172,43.06774866974172,4.779557173542057,679.6120627362407,836.1316423618754,156.51957962563472,156.51957962563472,23.030724174532555,1.3258775898700104,1.129188401230759,-0.19668918863925144,0.19668918863925144,-14.834641609602507,pleth_6
s3_sit,qppg,qppg (slope-sum),mid_upslope,lipponen_tarvainen,1.0,100.0,True,False,603,603,0.9953320956006322,0.0,0.0031381967831074337,602,1,1,0.9983416252072969,0.9983416252072969,0.9983416252072969,289.00000000000205,4.930116472546355,6.097515928571177,0.014975041597395464,6.102576672279824,601,815.7774086378738,815.9717607973423,0.19435215946850803,0.19435215946850803,0.023824165441529356,61.9273119712334,64.15030862275924,2.2229966515258397,2.2229966515258397,3.589686974558932,38.473190094833306,42.163417126229604,3.6902270313962973,3.6902270313962973,9.591684553061977,19.30116472545757,23.960066555740433,4.658901830282861,4.658901830282861,24.137931034482754,38.504571690160056,42.1974018935629,3.692830203402842,3.692830203402842,9.590627921064643,27.22684374879574,29.83806902739239,2.611225278596649,2.611225278596649,9.590627921064648,83.23871043837475,85.675047881557,2.4363374431822535,2.4363374431822535,2.926928385064279,0.3270935314279401,0.3482702346270359,0.02117670319909576,0.02117670319909576,6.474204215120977,1.4540556028720704,1.5406357532582067,0.08658015038613631,0.08658015038613631,5.954390617189743,1.077286974252094,1.0429044581226448,-0.034382516129449314,0.034382516129449314,-3.19158376098619,901.0824037873131,944.5542615470277,43.47185775971468,43.47185775971468,4.824404247269659,679.6120627362407,835.7334019254503,156.1213391892096,156.1213391892096,22.97212597443267,1.3258775898700104,1.1302100159822075,-0.19566757388780287,0.19566757388780287,-14.757589643474269,pleth_6
s3_sit,terma,TERMA,mid_upslope,lipponen_tarvainen,1.0,100.0,True,False,603,603,0.9953320956006322,0.0,0.00048502329868587953,602,1,1,0.9983416252072969,0.9983416252072969,0.9983416252072969,288.9999999999967,4.908485856905447,6.080163322090595,0.016638935108171236,6.085205229441,601,815.7774086378738,815.9534883720929,0.17607973421911538,0.17607973421911538,0.021584286639307726,61.9273119712334,64.09981683743722,2.172504866203816,2.172504866203816,3.508153021744255,38.473190094833306,42.19897799426413,3.725787899430827,3.725787899430827,9.68411480890215,19.30116472545757,24.292845257903494,4.991680532445923,4.991680532445923,25.86206896551724,38.504571690160056,42.23314656623611,3.7285748760760526,3.7285748760760526,9.683460203321518,27.22684374879574,29.86334432783091,2.636500579035168,2.636500579035168,9.683460203321518,83.23871043837475,85.59061690830022,2.351906469925467,2.351906469925467,2.8254960432942866,0.3270935314279401,0.3489090908157117,0.021815559387771577,0.021815559387771577,6.669517215010296,1.4540556028720704,1.539296935195317,0.0852413323232466,0.0852413323232466,5.862315867073911,1.077286974252094,1.042341015386681,-0.034945958865413074,0.034945958865413074,-3.243885770518509,901.0824037873131,944.1158607267859,43.033456939472785,43.033456939472785,4.7757515581926935,679.6120627362407,835.9173121474191,156.30524941117847,156.30524941117847,22.999187033535772,1.3258775898700104,1.1294369036351353,-0.1964406862348751,0.1964406862348751,-14.81589912490596,pleth_6
s3_sit,heartpy,HeartPy,mid_upslope,lipponen_tarvainen,1.0,100.0,True,False,592,603,0.9953320956006322,0.018612521150592216,0.016092886828914785,602,1,1,0.9983416252072969,0.9983416252072969,0.9983416252072969,289.00000000001546,5.178036605657561,6.557057901183251,0.016638935108171236,6.562498712463391,601,815.7774086378738,815.953488372093,0.17607973421922907,0.17607973421922907,0.021584286639321663,61.9273119712334,64.0559070713968,2.128595100163402,2.128595100163402,3.4372476899242472,38.473190094833306,42.28323403193848,3.8100439371051706,3.8100439371051706,9.903114162651239,19.30116472545757,23.960066555740433,4.658901830282861,4.658901830282861,24.137931034482754,38.504571690160056,42.31747474608102,3.8129030559209625,3.8129030559209625,9.902468430509408,27.22684374879574,29.922973355644363,2.696129606848622,2.696129606848622,9.902468430509405,83.23871043837475,85.50400064930437,2.2652902109296207,2.2652902109296207,2.7214383776484787,0.3270935314279401,0.3499599215055887,0.02286639007764857,0.02286639007764857,6.990780275545166,1.4540556028720704,1.5473641719111353,0.09330856903906493,0.09330856903906493,6.417125236116183,1.077286974252094,1.0440624345510592,-0.033224539701034894,0.033224539701034894,-3.0840936997405928,901.0824037873131,940.0851825128398,39.002778725526696,39.002778725526696,4.3284363962269445,679.6120627362407,819.6247275776615,140.01266484142081,140.01266484142081,20.601851043918288,1.3258775898700104,1.1469702546568965,-0.17890733521311386,0.17890733521311386,-13.493503214776714,pleth_6
s3_sit,findpeaks,find_peaks baseline,mid_upslope,lipponen_tarvainen,1.0,100.0,True,False,603,603,0.9953320956006322,0.0,0.00012496089767224716,602,1,1,0.9983416252072969,0.9983416252072969,0.9983416252072969,288.9999999999967,4.908485856905447,6.080163322090595,0.016638935108171236,6.085205229441,601,815.7774086378738,815.9534883720929,0.17607973421911538,0.17607973421911538,0.021584286639307726,61.9273119712334,64.09981683743722,2.172504866203816,2.172504866203816,3.508153021744255,38.473190094833306,42.19897799426413,3.725787899430827,3.725787899430827,9.68411480890215,19.30116472545757,24.292845257903494,4.991680532445923,4.991680532445923,25.86206896551724,38.504571690160056,42.23314656623611,3.7285748760760526,3.7285748760760526,9.683460203321518,27.22684374879574,29.86334432783091,2.636500579035168,2.636500579035168,9.683460203321518,83.23871043837475,85.59061690830022,2.351906469925467,2.351906469925467,2.8254960432942866,0.3270935314279401,0.3489090908157117,0.021815559387771577,0.021815559387771577,6.669517215010296,1.4540556028720704,1.539296935195317,0.0852413323232466,0.0852413323232466,5.862315867073911,1.077286974252094,1.042341015386681,-0.034945958865413074,0.034945958865413074,-3.243885770518509,901.0824037873131,944.1158607267859,43.033456939472785,43.033456939472785,4.7757515581926935,679.6120627362407,835.9173121474191,156.30524941117847,156.30524941117847,22.999187033535772,1.3258775898700104,1.1294369036351353,-0.1964406862348751,0.1964406862348751,-14.81589912490596,pleth_6
s3_sit,msptdfast,MSPTDfast v2,mid_upslope,lipponen_tarvainen,0.9,100.0,True,False,603,543,0.8937675960495473,0.014760147601476014,0.027227350100806076,538,5,5,0.990791896869245,0.990791896869245,0.990791896869245,288.9999999999967,4.9587242026267555,6.149940129972585,-0.005628517823620792,6.155714857194961,533,810.0446096654275,809.9513108614232,-0.09329880400434831,0.09329880400434831,-0.011517736540816375,59.70365876838299,61.833564873740535,2.1299061053575485,2.1299061053575485,3.56746328331468,37.3867003509066,41.37759134683921,3.9908909959326095,3.9908909959326095,10.674627497143735,18.063314711359403,23.639774859287055,5.576460147927651,5.576460147927651,30.871743293166485,37.42141417803312,41.416346679004036,3.9949325009709185,3.9949325009709185,10.675525200530766,26.460935726877633,29.285779588696702,2.824843861819069,2.824843861819069,10.675525200530759,80.1802508172747,82.3961322142759,2.2158813970011977,2.2158813970011977,2.7636249256079775,0.33001812113534407,0.35542662988764256,0.025408508752298498,0.025408508752298498,7.699125328296196,1.5896130626687812,1.5391368407249009,-0.05047622194388035,0.05047622194388035,-3.1753779035469463,1.066486577835718,0.9957337277833384,-0.07075285005237963,0.07075285005237963,-6.63419976611074,726.6201118502107,716.6632044599708,-9.956907390239962,9.956907390239962,-1.3703044036155898,503.8574403801987,611.7441577346875,107.88671735448884,107.88671735448884,21.412151276972335,1.4421144824256653,1.171508048583255,-0.27060643384241034,0.27060643384241034,-18.76455975861534,pleth_6
s3_sit,msptd,MSPTD,mid_upslope,lipponen_tarvainen,0.9,100.0,True,False,603,543,0.8937675960495473,0.014760147601476014,0.8928304644745683,538,5,5,0.990791896869245,0.990791896869245,0.990791896869245,288.9999999999967,4.954971857411297,6.146583425357265,-0.0056285178236212185,6.152354997855286,533,810.0446096654275,809.9513108614232,-0.09329880400434831,0.09329880400434831,-0.011517736540816375,59.70365876838299,61.83990608939482,2.1362473210118367,2.1362473210118367,3.5780844341538414,37.3867003509066,41.38949209986949,4.002791748962892,4.002791748962892,10.70645901187647,18.063314711359403,23.639774859287055,5.576460147927651,5.576460147927651,30.871743293166485,37.42141417803312,41.42825417566477,4.006839997631651,4.006839997631651,10.707345207663803,26.460935726877633,29.294199460332464,2.8332637334548316,2.8332637334548316,10.707345207663804,80.1802508172747,82.4026568034587,2.2224059861840004,2.2224059861840004,2.7717623274198924,0.33001812113534407,0.35550066705012956,0.025482545914785493,0.025482545914785493,7.7215596001574776,1.5896130626687812,1.5394937923617447,-0.050119270307036556,0.050119270307036556,-3.152922650427391,1.066486577835718,0.9956834056803651,-0.07080317215535292,0.07080317215535292,-6.638918259903264,726.6201118502107,716.6778124227433,-9.942299427467447,9.942299427467447,-1.368294004710539,503.8574403801987,612.4529403233698,108.59549994317115,108.59549994317115,21.552822532744102,1.4421144824256653,1.1701761314825978,-0.2719383509430675,0.2719383509430675,-18.85691838318285,pleth_6
s3_sit,qppg,qppg (slope-sum),mid_upslope,lipponen_tarvainen,0.9,100.0,True,False,603,543,0.8937675960495473,0.014760147601476014,0.003158635623442916,538,5,5,0.990791896869245,0.990791896869245,0.990791896869245,288.9999999999967,4.979362101314079,6.162892038153097,-0.00375234521579867,6.168680367177089,533,810.0446096654275,809.9513108614232,-0.09329880400434831,0.09329880400434831,-0.011517736540816375,59.70365876838299,61.84169607564892,2.1380373072659324,2.1380373072659324,3.5810825523446206,37.3867003509066,41.37208183935558,3.9853814884489793,3.9853814884489793,10.659890953314196,18.063314711359403,23.26454033771107,5.201225626351668,5.201225626351668,28.7944140345448,37.42141417803312,41.410827509492705,3.9894133314595877,3.9894133314595877,10.660776507482787,26.460935726877633,29.281876946508724,2.8209412196310915,2.8209412196310915,10.660776507482792,80.1802508172747,82.40972290643491,2.229472089160211,2.229472089160211,2.780575099772418,0.33001812113534407,0.35532065773057303,0.025302536595228964,0.025302536595228964,7.66701431672357,1.5896130626687812,1.5423354006783176,-0.04727766199046357,0.04727766199046357,-2.9741616435316467,1.066486577835718,0.9962546475954145,-0.0702319302403035,0.0702319302403035,-6.585355287155059,726.6201118502107,716.7149006961575,-9.905211154053177,9.905211154053177,-1.3631897868655594,503.8574403801987,611.8687083119341,108.01126793173546,108.01126793173546,21.436870685135215,1.4421144824256653,1.1713540682174781,-0.2707604142081872,0.2707604142081872,-18.775237160975095,pleth_6
s3_sit,terma,TERMA,mid_upslope,lipponen_tarvainen,0.9,100.0,True,False,603,543,0.8937675960495473,0.014760147601476014,0.0005169429896807762,538,5,5,0.990791896869245,0.990791896869245,0.990791896869245,288.9999999999967,4.954971857411297,6.147193871622112,-0.0056285178236212185,6.1529660178346255,533,810.0446096654275,809.9513108614232,-0.09329880400434831,0.09329880400434831,-0.011517736540816375,59.70365876838299,61.83790367049098,2.1342449021079943,2.1342449021079943,3.5747305041851427,37.3867003509066,41.38532155880025,3.998621207893649,3.998621207893649,10.695303865714603,18.063314711359403,23.639774859287055,5.576460147927651,5.576460147927651,30.871743293166485,37.42141417803312,41.4240797047058,4.002665526672679,4.002665526672679,10.696189907815665,26.460935726877633,29.291247663609507,2.8303119367318743,2.8303119367318743,10.696189907815663,80.1802508172747,82.4007006707524,2.220449853477703,2.220449853477703,2.769322658441112,0.33001812113534407,0.35547328390626476,0.025455162770920692,0.025455162770920692,7.713262133409108,1.5896130626687812,1.5368850514272954,-0.05272801124148585,0.05272801124148585,-3.317034345009814,1.066486577835718,0.9957243191963152,-0.07076225863940278,0.07076225863940278,-6.63508197008955,726.6201118502107,716.641257904441,-9.978853945769742,9.978853945769742,-1.3733247653110427,503.8574403801987,612.0990556494521,108.24161526925343,108.24161526925343,21.48258745322425,1.4421144824256653,1.170792948118613,-0.2713215343070523,0.2713215343070523,-18.81414670010692,pleth_6
s3_sit,heartpy,HeartPy,mid_upslope,lipponen_tarvainen,0.9,100.0,True,False,592,543,0.8937675960495473,0.039399624765478425,0.01604264896452089,534,9,9,0.9834254143646409,0.9834254143646409,0.9834254143646409,289.00000000000125,5.230623818526029,6.653026373342113,0.024574669187228084,6.659278177921998,529,810.0446096654275,809.8924528301886,-0.15215683523888401,0.15215683523888401,-0.018783759983506256,59.70365876838299,61.90340774143573,2.199748973052742,2.199748973052742,3.684445842065635,37.3867003509066,41.79152056250507,4.404820211598469,4.404820211598469,11.781783816853084,18.063314711359403,22.873345935727787,4.810031224368384,4.810031224368384,26.62872956170951,37.42141417803312,41.830956937387164,4.409542759354046,4.409542759354046,11.783474398844362,26.460935726877633,29.57895331394892,3.118017587071286,3.118017587071286,11.783474398844357,80.1802508172747,82.3962942179812,2.2160434007064964,2.2160434007064964,2.7638269749950117,0.33001812113534407,0.358984024641899,0.028965903506554924,0.028965903506554924,8.777064546305834,1.5896130626687812,1.5501381701528087,-0.03947489251597247,0.03947489251597247,-2.483301970965096,1.066486577835718,1.0199506688220064,-0.04653590901371163,0.04653590901371163,-4.3634781703628756,726.6201118502107,679.6627290738118,-46.95738277639896,46.95738277639896,-6.462439177031614,503.8574403801987,603.1388568255779,99.28141644537925,99.28141644537925,19.704267217025492,1.4421144824256653,1.1268760441849028,-0.3152384382407625,0.3152384382407625,-21.859459986181204,pleth_6
s3_sit,findpeaks,find_peaks baseline,mid_upslope,lipponen_tarvainen,0.9,100.0,True,False,603,543,0.8937675960495473,0.014760147601476014,0.0001305672581718709,538,5,5,0.990791896869245,0.990791896869245,0.990791896869245,288.9999999999967,4.954971857411297,6.147193871622112,-0.0056285178236212185,6.1529660178346255,533,810.0446096654275,809.9513108614232,-0.09329880400434831,0.09329880400434831,-0.011517736540816375,59.70365876838299,61.83790367049098,2.1342449021079943,2.1342449021079943,3.5747305041851427,37.3867003509066,41.38532155880025,3.998621207893649,3.998621207893649,10.695303865714603,18.063314711359403,23.639774859287055,5.576460147927651,5.576460147927651,30.871743293166485,37.42141417803312,41.4240797047058,4.002665526672679,4.002665526672679,10.696189907815665,26.460935726877633,29.291247663609507,2.8303119367318743,2.8303119367318743,10.696189907815663,80.1802508172747,82.4007006707524,2.220449853477703,2.220449853477703,2.769322658441112,0.33001812113534407,0.35547328390626476,0.025455162770920692,0.025455162770920692,7.713262133409108,1.5896130626687812,1.5368850514272954,-0.05272801124148585,0.05272801124148585,-3.317034345009814,1.066486577835718,0.9957243191963152,-0.07076225863940278,0.07076225863940278,-6.63508197008955,726.6201118502107,716.641257904441,-9.978853945769742,9.978853945769742,-1.3733247653110427,503.8574403801987,612.0990556494521,108.24161526925343,108.24161526925343,21.48258745322425,1.4421144824256653,1.170792948118613,-0.2713215343070523,0.2713215343070523,-18.81414670010692,pleth_6
s3_sit,msptdfast,MSPTDfast v2,mid_upslope,lipponen_tarvainen,0.75,100.0,True,False,603,460,0.7515772966780283,0.039301310043668124,0.024817005147162015,449,10,11,0.9760869565217392,0.9782135076252724,0.9771490750816106,288.00000000002035,4.872437357631973,6.0778922734338945,-0.0751708428246213,6.084361149586361,439,805.5288888888889,805.0090909090908,-0.5197979797981134,0.5197979797981134,-0.06452878189323537,59.71715299469367,62.052258886237375,2.335105891543705,2.335105891543705,3.9102766532610778,36.65902599745991,40.746424022422275,4.087398024962361,4.087398024962361,11.149772569641035,17.37193763919822,22.55125284738041,5.179315208182192,5.179315208182192,29.814263185561597,36.699884501600756,40.79285042710178,4.0929659255010264,4.0929659255010264,11.152530807889878,25.950737199844976,28.844901160932224,2.894163961087248,2.894163961087248,11.15253080788987,80.36688349294057,82.87905249690841,2.5121690039678413,2.5121690039678413,3.125875851822113,0.32290336606277,0.34803608743003195,0.025132721367261968,0.025132721367261968,7.783356882806962,1.581644049232872,1.553967066279123,-0.027676982953749096,0.027676982953749096,-1.749886958900327,1.1930387268322662,1.0813096463966254,-0.11172908043564078,0.11172908043564078,-9.365084127009164,692.8623176786026,739.8189720437875,46.95665436518493,46.95665436518493,6.777198465996915,383.08976245445535,465.3948176013606,82.30505514690526,82.30505514690526,21.484535274338036,1.80861611450913,1.589658810248051,-0.21895730426107907,0.21895730426107907,-12.106344873550212,pleth_6
s3_sit,msptd,MSPTD,mid_upslope,lipponen_tarvainen,0.75,100.0,True,False,603,460,0.7515772966780283,0.039301310043668124,0.8888652442215593,449,10,11,0.9760869565217392,0.9782135076252724,0.9771490750816106,288.00000000002035,4.872437357631973,6.080140569049785,-0.07517084282462157,6.086612182394344,439,805.5288888888889,805.0090909090908,-0.5197979797981134,0.5197979797981134,-0.06452878189323537,59.71715299469367,62.0506436493914,2.3334906546977265,2.3334906546977265,3.907571841050552,36.65902599745991,40.736975083481134,4.077949086021221,4.077949086021221,11.12399736507942,17.37193763919822,22.55125284738041,5.179315208182192,5.179315208182192,29.814263185561597,36.699884501600756,40.783390693641245,4.083506192040488,4.083506192040488,11.126754886278665,25.950737199844976,28.83821211925406,2.887474919409083,2.887474919409083,11.126754886278654,80.36688349294057,82.87896160288462,2.512078109944042,2.512078109944042,3.1257627529686443,0.32290336606277,0.3479557605636114,0.025052394500841402,0.025052394500841402,7.758480441474061,1.581644049232872,1.5520180265048076,-0.02962602272806447,0.02962602272806447,-1.8731156825351232,1.1930387268322662,1.0814093682819166,-0.11162935855034961,0.11162935855034961,-9.356725480885752,692.8623176786026,739.8176425071889,46.9553248285863,46.9553248285863,6.777006575549895,383.08976245445535,465.3748612828811,82.28509882842576,82.28509882842576,21.479325968207892,1.80861611450913,1.5897241214700808,-0.21889199303904916,0.21889199303904916,-12.102733757763618,pleth_6
s3_sit,qppg,qppg (slope-sum),mid_upslope,lipponen_tarvainen,0.75,100.0,True,False,603,460,0.7515772966780283,0.039301310043668124,0.003122438035076804,449,10,11,0.9760869565217392,0.9782135076252724,0.9771490750816106,288.9999999999967,4.8701594533041535,6.07508073383041,-0.07289293849667326,6.081573979524257,439,805.5288888888889,805.0090909090908,-0.5197979797981134,0.5197979797981134,-0.06452878189323537,59.71715299469367,62.04924863827804,2.332095643584367,2.332095643584367,3.9052358102061424,36.65902599745991,40.71247591047279,4.0534499130128765,4.0534499130128765,11.057167512562222,17.37193763919822,22.095671981776764,4.723734342578545,4.723734342578545,27.1917528181765,36.699884501600756,40.75886353261327,4.0589790310125125,4.0589790310125125,11.05992317451427,25.950737199844976,28.820868797367925,2.870131597522949,2.870131597522949,11.059923174514266,80.36688349294057,82.88290556510795,2.516022072167374,2.516022072167374,3.13067019998154,0.32290336606277,0.3477299522846474,0.024826586221877445,0.024826586221877445,7.688549836006152,1.581644049232872,1.5597067115690877,-0.021937337663784362,0.021937337663784362,-1.386995871443034,1.1930387268322662,1.0825338051365017,-0.11050492169576454,0.11050492169576454,-9.262475660716825,692.8623176786026,740.3315111839395,47.469193505336875,47.469193505336875,6.851172634756617,383.08976245445535,465.678295182133,82.58853272767766,82.58853272767766,21.55853296588588,1.80861611450913,1.5897917486027258,-0.2188243659064042,0.2188243659064042,-12.098994593211094,pleth_6
s3_sit,terma,TERMA,mid_upslope,lipponen_tarvainen,0.75,100.0,True,False,603,460,0.7515772966780283,0.039301310043668124,0.0005744325586938692,449,10,11,0.9760869565217392,0.9782135076252724,0.9771490750816106,288.00000000002035,4.872437357631973,6.080140569049785,-0.07517084282462157,6.086612182394344,439,805.5288888888889,805.0090909090908,-0.5197979797981134,0.5197979797981134,-0.06452878189323537,59.71715299469367,62.0506436493914,2.3334906546977265,2.3334906546977265,3.907571841050552,36.65902599745991,40.736975083481134,4.077949086021221,4.077949086021221,11.12399736507942,17.37193763919822,22.55125284738041,5.179315208182192,5.179315208182192,29.814263185561597,36.699884501600756,40.783390693641245,4.083506192040488,4.083506192040488,11.126754886278665,25.950737199844976,28.83821211925406,2.887474919409083,2.887474919409083,11.126754886278654,80.36688349294057,82.87896160288462,2.512078109944042,2.512078109944042,3.1257627529686443,0.32290336606277,0.3479557605636114,0.025052394500841402,0.025052394500841402,7.758480441474061,1.581644049232872,1.5520180265048076,-0.02962602272806447,0.02962602272806447,-1.8731156825351232,1.1930387268322662,1.0814093682819166,-0.11162935855034961,0.11162935855034961,-9.356725480885752,692.8623176786026,739.8176425071889,46.9553248285863,46.9553248285863,6.777006575549895,383.08976245445535,465.3748612828811,82.28509882842576,82.28509882842576,21.479325968207892,1.80861611450913,1.5897241214700808,-0.21889199303904916,0.21889199303904916,-12.102733757763618,pleth_6
s3_sit,heartpy,HeartPy,mid_upslope,lipponen_tarvainen,0.75,100.0,True,False,592,460,0.7515772966780283,0.05309734513274336,0.015848120446918502,449,10,11,0.9760869565217392,0.9782135076252724,0.9771490750816106,289.00000000000125,5.154897494306157,6.644400934721056,-0.07517084282462157,6.651555824830631,439,805.5288888888889,805.0090909090907,-0.5197979797982271,0.5197979797982271,-0.06452878189324948,59.71715299469367,62.00209349901399,2.2849405043203177,2.2849405043203177,3.8262716652338606,36.65902599745991,40.80245760609335,4.143431608633435,4.143431608633435,11.302623285519182,17.37193763919822,22.55125284738041,5.179315208182192,5.179315208182192,29.814263185561597,36.699884501600756,40.84894802370933,4.149063522108577,4.149063522108577,11.305385775608109,25.950737199844976,28.88456815190169,2.933830952056713,2.933830952056713,11.305385775608096,80.36688349294057,82.7901015774174,2.4232180844768294,2.4232180844768294,3.0151947906374708,0.32290336606277,0.3488891498084659,0.025985783745695934,0.025985783745695934,8.047541920217856,1.581644049232872,1.5602268676276296,-0.02141718160524242,0.02141718160524242,-1.3541088221227884,1.1930387268322662,1.0862014708713088,-0.10683725596095739,0.10683725596095739,-8.955053474636959,692.8623176786026,738.9618245549349,46.09950687633227,46.09950687633227,6.653487381271672,383.08976245445535,463.9376068655244,80.84784441106905,80.84784441106905,21.104151646621165,1.80861611450913,1.5928043202781967,-0.21581179423093322,0.21581179423093322,-11.932426815156733,pleth_6
s3_sit,findpeaks,find_peaks baseline,mid_upslope,lipponen_tarvainen,0.75,100.0,True,False,603,460,0.7515772966780283,0.039301310043668124,0.00012888535055404865,449,10,11,0.9760869565217392,0.9782135076252724,0.9771490750816106,288.00000000002035,4.872437357631973,6.080140569049785,-0.07517084282462157,6.086612182394344,439,805.5288888888889,805.0090909090908,-0.5197979797981134,0.5197979797981134,-0.06452878189323537,59.71715299469367,62.0506436493914,2.3334906546977265,2.3334906546977265,3.907571841050552,36.65902599745991,40.736975083481134,4.077949086021221,4.077949086021221,11.12399736507942,17.37193763919822,22.55125284738041,5.179315208182192,5.179315208182192,29.814263185561597,36.699884501600756,40.783390693641245,4.083506192040488,4.083506192040488,11.126754886278665,25.950737199844976,28.83821211925406,2.887474919409083,2.887474919409083,11.126754886278654,80.36688349294057,82.87896160288462,2.512078109944042,2.512078109944042,3.1257627529686443,0.32290336606277,0.3479557605636114,0.025052394500841402,0.025052394500841402,7.758480441474061,1.581644049232872,1.5520180265048076,-0.02962602272806447,0.02962602272806447,-1.8731156825351232,1.1930387268322662,1.0814093682819166,-0.11162935855034961,0.11162935855034961,-9.356725480885752,692.8623176786026,739.8176425071889,46.9553248285863,46.9553248285863,6.777006575549895,383.08976245445535,465.3748612828811,82.28509882842576,82.28509882842576,21.479325968207892,1.80861611450913,1.5897241214700808,-0.21889199303904916,0.21889199303904916,-12.102733757763618,pleth_6
s3_sit,msptdfast,MSPTDfast v2,mid_upslope,lipponen_tarvainen,0.5,100.0,True,False,603,302,0.4875095978452076,0.07432432432432433,0.027847401370752735,286,11,16,0.9470198675496688,0.9629629629629629,0.9549248747913187,287.0000000000156,4.930656934307615,6.07946165499821,-0.13503649635035045,6.089083383034314,274,805.3310344827585,802.8868613138686,-2.444173168889847,2.444173168889847,-0.3034991903000076,59.44734580115068,61.4652435425009,2.017897741350218,2.017897741350218,3.3944286564113666,38.29732524742846,42.71208663039541,4.414761382966951,4.414761382966951,11.527597174069978,18.33910034602076,24.175824175824175,5.8367238298034145,5.8367238298034145,31.826663902135603,38.36294428274254,42.789572082362014,4.4266277996194745,4.4266277996194745,11.538811429577317,27.126698048608944,30.256796583508763,3.130098534899819,3.130098534899819,11.538811429577327,79.57459455493802,81.48913171694781,1.9145371620097933,1.9145371620097933,2.4059653369493494,0.3408964657668569,0.3712985516719657,0.03040208590510879,0.03040208590510879,8.918275476021256,1.6360049398188221,1.598493890754783,-0.037511049064039126,0.037511049064039126,-2.2928444866549884,1.1091626305729203,1.1434302147258806,0.03426758415296027,0.03426758415296027,3.0895004220670415,528.4906653821768,568.0870842113425,39.596418829165714,39.596418829165714,7.492359169774864,278.58447898009183,341.10617153003557,62.52169254994374,62.52169254994374,22.442633121140844,1.89705710568299,1.6654259923330659,-0.23163111334992403,0.23163111334992403,-12.210023233145153,pleth_6
s3_sit,msptd,MSPTD,mid_upslope,lipponen_tarvainen,0.5,100.0,True,False,603,302,0.4875095978452076,0.07432432432432433,0.8917288024733891,286,11,16,0.9470198675496688,0.9629629629629629,0.9549248747913187,287.0000000000156,4.930656934307615,6.07946165499821,-0.13503649635035045,6.089083383034314,274,805.3310344827585,802.8868613138686,-2.444173168889847,2.444173168889847,-0.3034991903000076,59.44734580115068,61.4652435425009,2.017897741350218,2.017897741350218,3.3944286564113666,38.29732524742846,42.71208663039541,4.414761382966951,4.414761382966951,11.527597174069978,18.33910034602076,24.175824175824175,5.8367238298034145,5.8367238298034145,31.826663902135603,38.36294428274254,42.789572082362014,4.4266277996194745,4.4266277996194745,11.538811429577317,27.126698048608944,30.256796583508763,3.130098534899819,3.130098534899819,11.538811429577327,79.57459455493802,81.48913171694781,1.9145371620097933,1.9145371620097933,2.4059653369493494,0.3408964657668569,0.3712985516719657,0.03040208590510879,0.03040208590510879,8.918275476021256,1.6360049398188221,1.598493890754783,-0.037511049064039126,0.037511049064039126,-2.2928444866549884,1.1091626305729203,1.1434302147258806,0.03426758415296027,0.03426758415296027,3.0895004220670415,528.4906653821768,568.0870842113425,39.596418829165714,39.596418829165714,7.492359169774864,278.58447898009183,341.10617153003557,62.52169254994374,62.52169254994374,22.442633121140844,1.89705710568299,1.6654259923330659,-0.23163111334992403,0.23163111334992403,-12.210023233145153,pleth_6
s3_sit,qppg,qppg (slope-sum),mid_upslope,lipponen_tarvainen,0.5,100.0,True,False,603,302,0.4875095978452076,0.07432432432432433,0.0031492144996694625,286,11,16,0.9470198675496688,0.9629629629629629,0.9549248747913187,287.0000000000298,4.941605839417208,6.11388273062161,-0.1386861313868638,6.123494036888129,274,805.3310344827585,802.8832116788321,-2.4478228039263286,2.4478228039263286,-0.3039523747521411,59.44734580115068,61.4545385077496,2.0071927065989144,2.0071927065989144,3.376421065648422,38.29732524742846,42.67115933306562,4.3738340856371565,4.3738340856371565,11.420729926643755,18.33910034602076,23.44322344322344,5.104123097202681,5.104123097202681,27.83191651116179,38.36294428274254,42.74856870177591,4.38562441903337,4.38562441903337,11.43192865154052,27.126698048608944,30.227802815044754,3.1011047664358102,3.1011047664358102,11.431928651540524,79.57459455493802,81.48374404367861,1.9091494887405958,1.9091494887405958,2.399194742264789,0.3408964657668569,0.37096727905435245,0.030070813287495557,0.030070813287495557,8.821098576029634,1.6360049398188221,1.597283812783417,-0.03872112703540509,0.03872112703540509,-2.3668099094916686,1.1091626305729203,1.1439962428139017,0.03483361224098136,0.03483361224098136,3.140532441395777,528.4906653821768,568.6133522912389,40.12268690906217,40.12268690906217,7.591938616370365,278.58447898009183,341.43016513266895,62.845686152577116,62.845686152577116,22.55893306858211,1.89705710568299,1.6653869820503229,-0.23167012363266704,0.23167012363266704,-12.212079590996801,pleth_6
s3_sit,terma,TERMA,mid_upslope,lipponen_tarvainen,0.5,100.0,True,False,603,302,0.4875095978452076,0.07432432432432433,0.0005018789427962248,286,11,16,0.9470198675496688,0.9629629629629629,0.9549248747913187,287.0000000000156,4.930656934307615,6.07946165499821,-0.13503649635035045,6.089083383034314,274,805.3310344827585,802.8868613138686,-2.444173168889847,2.444173168889847,-0.3034991903000076,59.44734580115068,61.4652435425009,2.017897741350218,2.017897741350218,3.3944286564113666,38.29732524742846,42.71208663039541,4.414761382966951,4.414761382966951,11.527597174069978,18.33910034602076,24.175824175824175,5.8367238298034145,5.8367238298034145,31.826663902135603,38.36294428274254,42.789572082362014,4.4266277996194745,4.4266277996194745,11.538811429577317,27.126698048608944,30.256796583508763,3.130098534899819,3.130098534899819,11.538811429577327,79.57459455493802,81.48913171694781,1.9145371620097933,1.9145371620097933,2.4059653369493494,0.3408964657668569,0.3712985516719657,0.03040208590510879,0.03040208590510879,8.918275476021256,1.6360049398188221,1.598493890754783,-0.037511049064039126,0.037511049064039126,-2.2928444866549884,1.1091626305729203,1.1434302147258806,0.03426758415296027,0.03426758415296027,3.0895004220670415,528.4906653821768,568.0870842113425,39.596418829165714,39.596418829165714,7.492359169774864,278.58447898009183,341.10617153003557,62.52169254994374,62.52169254994374,22.442633121140844,1.89705710568299,1.6654259923330659,-0.23163111334992403,0.23163111334992403,-12.210023233145153,pleth_6
s3_sit,heartpy,HeartPy,mid_upslope,lipponen_tarvainen,0.5,100.0,True,False,592,302,0.4875095978452076,0.0859106529209622,0.016192545978229,283,12,19,0.9370860927152318,0.9593220338983051,0.948073701842546,287.0000000000201,5.429629629630304,7.797910451360229,-0.23703703703718398,7.808781071345911,270,805.3310344827585,807.1948529411765,1.8638184584179953,1.8638184584179953,0.23143507186644977,59.44734580115068,90.43908212098428,30.9917363198336,30.9917363198336,52.13308668733485,38.29732524742846,101.68622601358598,63.38890076615752,63.38890076615752,165.51782756790274,18.33910034602076,24.723247232472325,6.384146886451564,6.384146886451564,34.8116688714057,38.36294428274254,101.87395170677429,63.51100742403175,63.51100742403175,165.5530059318257,27.126698048608944,72.03576207813096,44.909064029522014,44.909064029522014,165.5530059318257,79.57459455493802,105.6849285924686,26.110334037530578,26.110334037530578,32.81239971572095,0.3408964657668569,0.6816086554394893,0.34071218967263245,0.34071218967263245,99.9459436771191,1.6360049398188221,1.2051990460491804,-0.43080589376964173,0.43080589376964173,-26.33279908172838,1.1091626305729203,0.7415116846675958,-0.36765094590532454,0.36765094590532454,-33.14671228288861,528.4906653821768,1552.9215464586248,1024.430881076448,1024.430881076448,193.84086572950787,278.58447898009183,523.7194431672259,245.13496418713407,245.13496418713407,87.99304436649963,1.89705710568299,2.965178334925347,1.068121229242357,1.068121229242357,56.304115782418975,pleth_6
s3_sit,findpeaks,find_peaks baseline,mid_upslope,lipponen_tarvainen,0.5,100.0,True,False,603,302,0.4875095978452076,0.07432432432432433,0.00012532652999441065,286,11,16,0.9470198675496688,0.9629629629629629,0.9549248747913187,287.0000000000156,4.930656934307615,6.07946165499821,-0.13503649635035045,6.089083383034314,274,805.3310344827585,802.8868613138686,-2.444173168889847,2.444173168889847,-0.3034991903000076,59.44734580115068,61.4652435425009,2.017897741350218,2.017897741350218,3.3944286564113666,38.29732524742846,42.71208663039541,4.414761382966951,4.414761382966951,11.527597174069978,18.33910034602076,24.175824175824175,5.8367238298034145,5.8367238298034145,31.826663902135603,38.36294428274254,42.789572082362014,4.4266277996194745,4.4266277996194745,11.538811429577317,27.126698048608944,30.256796583508763,3.130098534899819,3.130098534899819,11.538811429577327,79.57459455493802,81.48913171694781,1.9145371620097933,1.9145371620097933,2.4059653369493494,0.3408964657668569,0.3712985516719657,0.03040208590510879,0.03040208590510879,8.918275476021256,1.6360049398188221,1.598493890754783,-0.037511049064039126,0.037511049064039126,-2.2928444866549884,1.1091626305729203,1.1434302147258806,0.03426758415296027,0.03426758415296027,3.0895004220670415,528.4906653821768,568.0870842113425,39.596418829165714,39.596418829165714,7.492359169774864,278.58447898009183,341.10617153003557,62.52169254994374,62.52169254994374,22.442633121140844,1.89705710568299,1.6654259923330659,-0.23163111334992403,0.23163111334992403,-12.210023233145153,pleth_6
s4_sit,msptdfast,MSPTDfast v2,mid_upslope,lipponen_tarvainen,1.0,100.0,True,False,679,681,0.9920795607314664,0.0014749262536873156,0.02170307261154505,680,0,1,0.9985315712187959,1.0,0.9992652461425422,266.00000000000057,5.123711340205976,7.125531269756633,0.019145802650952937,7.130758409415537,679,724.3264705882353,724.3313696612665,0.0048990730311970765,0.0048990730311970765,0.000676362556130038,47.66481403611934,48.53190480915013,0.8670907730307889,0.8670907730307889,1.8191422552781318,25.291933202608096,27.187646856483433,1.8957136538753367,1.8957136538753367,7.4953291972155425,4.860088365243005,6.1946902654867255,1.3346019002437206,1.3346019002437206,27.460445159560187,25.31055348154773,27.207380076217067,1.8968265946693386,1.8968265946693386,7.494212230689427,17.89726400238718,19.238522950212854,1.3412589478256756,1.3412589478256756,7.494212230689426,64.98889855524969,65.88300845819772,0.8941099029480313,0.8941099029480313,1.3757886697955226,0.2753895572975743,0.29201038933156115,0.016620832033986843,0.016620832033986843,6.035389357929457,1.4191767991993267,1.4936606359180185,0.07448383671869174,0.07448383671869174,5.2483832007903555,1.2617883725140517,1.2363078467778856,-0.025480525736166104,0.025480525736166104,-2.019397728748871,966.4383586160568,990.8793472145431,24.440988598486342,24.440988598486342,2.528975426170576,276.63397826643387,301.2995554814973,24.665577215063422,24.665577215063422,8.916322343926717,3.4935634612652433,3.2886850617188936,-0.20487839954634968,0.20487839954634968,-5.864453353085794,pleth_6
s4_sit,msptd,MSPTD,mid_upslope,lipponen_tarvainen,1.0,100.0,True,False,680,681,0.9920795607314664,0.0,0.8652997295059696,680,0,1,0.9985315712187959,1.0,0.9992652461425422,266.00000000000057,5.141384388806777,7.16962583470784,0.019145802650952937,7.174885638811781,679,724.3264705882353,724.3313696612665,0.0048990730311970765,0.0048990730311970765,0.000676362556130038,47.66481403611934,48.56514102777295,0.9003269916536141,0.9003269916536141,1.8888712981684272,25.291933202608096,27.176197723629258,1.8842645210211622,1.8842645210211622,7.450061274188632,4.860088365243005,6.1946902654867255,1.3346019002437206,1.3346019002437206,27.460445159560187,25.31055348154773,27.195922347931347,1.8853688663836188,1.8853688663836188,7.448943650158097,17.89726400238718,19.23042111284503,1.3331571104578508,1.3331571104578508,7.448943650158097,64.98889855524969,65.93433665335229,0.9454380981025992,0.9454380981025992,1.4547686129790982,0.2753895572975743,0.2916601893479018,0.01627063205032747,0.01627063205032747,5.908224048142143,1.4191767991993267,1.4931662664641052,0.07398946726477851,0.07398946726477851,5.213548256039839,1.2617883725140517,1.2364610165607304,-0.025327355953321362,0.025327355953321362,-2.0072586263303283,966.4383586160568,990.8950725743412,24.456713958284354,24.456713958284354,2.5306025718294602,276.63397826643387,301.3468351169008,24.71285685046695,24.71285685046695,8.933413388092664,3.4935634612652433,3.288221268990416,-0.20534219227482753,0.20534219227482753,-5.8777289879388634,pleth_6
s4_sit,qppg,qppg (slope-sum),mid_upslope,lipponen_tarvainen,1.0,100.0,True,False,614,681,0.9920795607314664,0.022838499184339316,0.0034302912255640707,608,12,73,0.8928046989720999,0.9806451612903225,0.9346656418139893,264.9999999999994,4.777586206895593,6.9791561588521915,-0.36379310344820803,6.975684347503395,580,724.3264705882353,767.3011456628478,42.97467507461249,42.97467507461249,5.93305323215817,47.66481403611934,202.0151292386494,154.35031520253006,154.35031520253006,323.8244359572384,25.291933202608096,213.71410349527048,188.42217029266237,188.42217029266237,744.9891978729105,4.860088365243005,11.311475409836065,6.45138704459306,6.45138704459306,132.74217585692992,25.31055348154773,213.88804483334448,188.57749135179677,188.57749135179677,745.0547910351953,17.89726400238718,151.2416869163902,133.34442291400302,133.34442291400302,745.0547910351953,64.98889855524969,242.37610653961136,177.38720798436168,177.38720798436168,272.95001442986086,0.2753895572975743,0.6239958594750051,0.3486063021774308,0.3486063021774308,126.58660901972458,1.4191767991993267,0.44047600363661943,-0.9787007955627073,0.9787007955627073,-68.9625701403005,1.2617883725140517,0.8187837490934254,-0.4430046234206263,0.4430046234206263,-35.10926499805678,966.4383586160568,24657.10988630022,23690.67152768416,23690.67152768416,2451.338082400753,276.63397826643387,9650.829593459965,9374.19561519353,9374.19561519353,3388.6638488656595,3.4935634612652433,2.554921278789286,-0.9386421824759572,0.9386421824759572,-26.867758175373595,pleth_6
s4_sit,terma,TERMA,mid_upslope,lipponen_tarvainen,1.0,100.0,True,False,680,681,0.9920795607314664,0.0014727540500736377,0.00042952590684249757,679,2,2,0.9970631424375918,0.9970631424375918,0.9970631424375918,265.999999999996,5.180206794682075,7.420379936682173,-0.12555391432785717,7.424803298380147,677,724.3264705882353,725.6676470588235,1.3411764705881524,1.3411764705881524,0.185161874520334,47.66481403611934,52.80900211443963,5.1441880783202905,5.1441880783202905,10.792422423849466,25.291933202608096,34.84717318011468,9.555239977506584,9.555239977506584,37.77979287293567,4.860088365243005,6.774668630338733,1.9145802650957284,1.9145802650957284,39.39393939393938,25.31055348154773,34.87197268389715,9.56141920234942,9.56141920234942,37.77641294695521,17.89726400238718,24.658208358135724,6.760944355748546,6.760944355748546,37.77641294695521,64.98889855524969,70.4950648571412,5.506166301891511,5.506166301891511,8.472472105694324,0.2753895572975743,0.3497863064330216,0.0743967491354473,0.0743967491354473,27.015094495779056,1.4191767991993267,1.3960189110118855,-0.023157888187441245,0.023157888187441245,-1.6317831718011806,1.2617883725140517,1.1497101406475077,-0.11207823186654409,0.11207823186654409,-8.882490464168225,966.4383586160568,1155.4043985760343,188.96603995997748,188.96603995997748,19.55282903201168,276.63397826643387,518.1847436671235,241.5507654006896,241.5507654006896,87.31782224092709,3.4935634612652433,2.229715198481903,-1.2638482627833403,1.2638482627833403,-36.17647931105908,pleth_6
s4_sit,heartpy,HeartPy,mid_upslope,lipponen_tarvainen,1.0,100.0,True,False,672,681,0.9920795607314664,0.0014903129657228018,0.03433048802215683,670,2,11,0.9838472834067548,0.9970238095238095,0.9903917220990393,266.0,4.999999999999583,6.8724053004903665,-0.11951588502278215,6.876569599897499,661,724.3264705882353,733.6492537313433,9.322783143107927,9.322783143107927,1.287096843987597,47.66481403611934,93.22294808023207,45.558134044112734,45.558134044112734,95.58021984432749,25.291933202608096,96.2947642104694,71.0028310078613,71.0028310078613,280.73311138011195,4.860088365243005,7.623318385650224,2.763230020407219,2.763230020407219,56.8555510259546,25.31055348154773,96.36501183628546,71.05445835473773,71.05445835473773,280.7305593160533,17.89726400238718,68.14035333855936,50.24308933617219,50.24308933617219,280.7305593160533,64.98889855524969,112.86243105850401,47.873532503254324,47.873532503254324,73.66416967746437,0.2753895572975743,0.603746992683843,0.3283574353862687,0.3283574353862687,119.23380051461413,1.4191767991993267,0.9089263352054313,-0.5102504639938954,0.5102504639938954,-35.95397446475797,1.2617883725140517,0.9190472584271853,-0.34274111408686647,0.34274111408686647,-27.16312192701313,966.4383586160568,3385.6531806588996,2419.2148220428426,2419.2148220428426,250.32272368691645,276.63397826643387,2954.2183962732975,2677.5844180068634,2677.5844180068634,967.9159569573943,3.4935634612652433,1.146040247034495,-2.3475232142307485,2.3475232142307485,-67.195665407508,pleth_6
s4_sit,findpeaks,find_peaks baseline,mid_upslope,lipponen_tarvainen,1.0,100.0,True,False,682,681,0.9920795607314664,0.0,0.00015190965164184418,681,1,0,1.0,0.998533724340176,0.9992663242846662,266.00000000000057,5.136764705882076,7.164762628964182,0.016176470588216904,7.170018379496813,680,724.3264705882353,724.6020558002937,0.2755852120583313,0.2755852120583313,0.038047099374198604,47.66481403611934,48.96477060574587,1.2999565696265307,1.2999565696265307,2.7272876143845908,25.291933202608096,28.248034809313022,2.9561016067049266,2.9561016067049266,11.68792271837921,4.860088365243005,6.470588235294119,1.6104998700511137,1.6104998700511137,33.137254901960794,25.31055348154773,28.267734239098704,2.957180757550976,2.957180757550976,11.68358787454752,17.89726400238718,19.988306569245847,2.0910425668586683,2.0910425668586683,11.68358787454753,64.98889855524969,66.29905822438562,1.3101596691359276,1.3101596691359276,2.0159745714448567,0.2753895572975743,0.30148703623506223,0.026097478937487928,0.026097478937487928,9.476568099961792,1.4191767991993267,1.4931662664641052,0.07398946726477851,0.07398946726477851,5.213548256039839,1.2617883725140517,1.2758132669270215,0.014024894412969724,0.014024894412969724,1.1115092450111745,966.4383586160568,990.8441040485706,24.405745432513754,24.405745432513754,2.525328720133053,276.63397826643387,301.35508608910277,24.7211078226689,24.7211078226689,8.936396019602233,3.4935634612652433,3.287962107782724,-0.2056013534825194,0.2056013534825194,-5.885147236113409,pleth_6
