record,detector,detector_label,fiducial,correction,coverage_target,fs,sub_sample,failed,n_detected,n_ref,analysable_fraction,fraction_corrected,detect_s_per_min,tp,fp,fn,sensitivity,ppv,f1,lag_ms,ibi_mae,ibi_rmse,ibi_bias,ibi_sd,n_ibi,mean_nn_ref,mean_nn_test,mean_nn_err,mean_nn_abserr,mean_nn_pcterr,sdnn_ref,sdnn_test,sdnn_err,sdnn_abserr,sdnn_pcterr,rmssd_ref,rmssd_test,rmssd_err,rmssd_abserr,rmssd_pcterr,pnn50_ref,pnn50_test,pnn50_err,pnn50_abserr,pnn50_pcterr,sdsd_ref,sdsd_test,sdsd_err,sdsd_abserr,sdsd_pcterr,sd1_ref,sd1_test,sd1_err,sd1_abserr,sd1_pcterr,sd2_ref,sd2_test,sd2_err,sd2_abserr,sd2_pcterr,sd1_sd2_ref,sd1_sd2_test,sd1_sd2_err,sd1_sd2_abserr,sd1_sd2_pcterr,sampen_ref,sampen_test,sampen_err,sampen_abserr,sampen_pcterr,dfa_a1_ref,dfa_a1_test,dfa_a1_err,dfa_a1_abserr,dfa_a1_pcterr,lf_ref,lf_test,lf_err,lf_abserr,lf_pcterr,hf_ref,hf_test,hf_err,hf_abserr,hf_pcterr,lf_hf_ref,lf_hf_test,lf_hf_err,lf_hf_abserr,lf_hf_pcterr,is_ceiling
s1_sit,msptdfast,MSPTDfast v2,mid_upslope,none,1.0,100.0,True,False,612,613,0.9841512286143937,0.0,0.021771050995125378,612,0,1,0.99836867862969,1.0,0.9991836734693879,314.2833363053641,4.915138760045764,6.958672536648322,0.01755308976177779,6.964351874070565,611,828.437908496732,828.387438523477,-0.0504699732549625,0.0504699732549625,-0.006092185393416432,46.977980713169195,47.81982431715919,0.841843603989993,0.841843603989993,1.7919961463009446,30.45299025358163,32.492268179563794,2.039277925982166,2.039277925982166,6.696478437753162,9.00163666121113,11.80327868852459,2.801642027313461,2.801642027313461,31.123695976154995,30.477600635297417,32.518469778362025,2.040869143064608,2.040869143064608,6.696292032585367,21.550918083514233,22.994030494089596,1.4431124105753632,1.4431124105753632,6.6962920325853705,62.844405268340736,63.59831567804933,0.7539104097085954,0.7539104097085954,1.1996460249555332,0.3429250064742197,0.36155093494128304,0.018625928467063346,0.018625928467063346,5.431487385118297,1.6764542772105453,1.7514783105883347,0.0750240333777894,0.0750240333777894,4.4751613209888434,1.1460653887927263,1.130106628686738,-0.01595876010598829,0.01595876010598829,-1.3924825112116304,570.2327955867494,600.8345753179418,30.601779731192437,30.601779731192437,5.366541519188543,327.28840925752615,330.36001877787953,3.071609520353377,3.071609520353377,0.938502383057656,1.7422945006832276,1.818726665353286,0.07643216467005853,0.07643216467005853,4.386868272848605,False
s1_sit,msptdfast,MSPTDfast v2,mid_upslope,none,1.0,100.0,False,False,612,613,0.9841512286143937,0.0,0.021772704368889898,612,0,1,0.99836867862969,1.0,0.9991836734693879,314.00000000000585,6.065466448448333,7.963501027114237,0.009819967266778754,7.970019754403337,611,828.437908496732,828.379705400982,-0.05820309575005922,0.05820309575005922,-0.0070256437028181715,46.977980713169195,48.00778468886837,1.0298039756991741,1.0298039756991741,2.192099277290759,30.45299025358163,33.296974706273,2.8439844526913696,2.8439844526913696,9.338933316595678,9.00163666121113,13.278688524590162,4.277051863379032,4.277051863379032,47.514157973174335,30.477600635297417,33.32381220182439,2.8462115665269714,2.8462115665269714,9.338699593138745,21.550918083514233,23.563493582897042,2.012575499382809,2.012575499382809,9.338699593138749,62.844405268340736,63.67304415240611,0.8286388840653771,0.8286388840653771,1.3185563305550483,0.3429250064742197,0.37007015914766206,0.027145152673442363,0.027145152673442363,7.915769384255467,1.6764542772105453,2.401927536326309,0.7254732591157635,0.7254732591157635,43.27426455810531,1.1460653887927263,1.1234909248883893,-0.02257446390433704,0.02257446390433704,-1.9697361184702684,570.2327955867494,601.7258138954893,31.49301830873992,31.49301830873992,5.522835331898917,327.28840925752615,335.4364058726139,8.14799661508772,8.14799661508772,2.4895463403583253,1.7422945006832276,1.79385959115005,0.05156509046682234,0.05156509046682234,2.9596081745423337,False
s1_sit,msptdfast,MSPTDfast v2,mid_upslope,none,1.0,50.0,True,False,613,613,0.9841512286143937,0.0016339869281045752,0.031435896325171186,612,1,1,0.99836867862969,0.99836867862969,0.99836867862969,314.5256433218067,4.889149149304118,6.900613209069174,0.010026464389645232,6.906269123196314,610,828.437908496732,827.9347226756323,-0.5031858210996916,0.5031858210996916,-0.06073911103522087,46.977980713169195,48.595214467935065,1.61723375476587,1.61723375476587,3.4425356948399353,30.45299025358163,35.95913375250786,5.506143498926232,5.506143498926232,18.0807974950133,9.00163666121113,12.459016393442624,3.4573797322314945,3.4573797322314945,38.40834575260805,30.477600635297417,35.988227363026,5.510626727728582,5.510626727728582,18.08090733148622,21.550918083514233,25.44751961127895,3.896601527764716,3.896601527764716,18.080907331486227,62.844405268340736,63.83896524852815,0.994559980187411,0.994559980187411,1.5825752124484542,0.3429250064742197,0.3986204900441374,0.055695483569917714,0.055695483569917714,16.241301310321553,1.6764542772105453,1.7466390339475855,0.07018475673704017,0.07018475673704017,4.186499905850143,1.1460653887927263,1.1278412589965627,-0.018224129796163613,0.018224129796163613,-1.5901474710235377,570.2327955867494,639.4430005585898,69.21020497184043,69.21020497184043,12.137184235541131,327.28840925752615,370.37596664574085,43.08755738821469,43.08755738821469,13.165011705107878,1.7422945006832276,1.7264700146438163,-0.015824486039411223,0.015824486039411223,-0.9082555235757084,False
s1_sit,msptdfast,MSPTDfast v2,mid_upslope,none,1.0,50.0,False,False,613,613,0.9841512286143937,0.0016339869281045752,0.031270299103319465,612,1,1,0.99836867862969,0.99836867862969,0.99836867862969,314.99999999998676,8.101639344263258,10.151960159593603,0.009836065573773846,10.160286914578478,610,828.437908496732,827.9214402618658,-0.5164682348662382,0.5164682348662382,-0.062342419337547195,46.977980713169195,49.16449853919789,2.186517826028698,2.186517826028698,4.654346127345908,30.45299025358163,37.852171473323764,7.399181219742136,7.399181219742136,24.29705969144329,9.00163666121113,14.426229508196723,5.424592846985593,5.424592846985593,60.26229508196723,30.477600635297417,37.88288075695425,7.405280121656833,7.405280121656833,24.29745113557417,21.550918083514233,26.787241874123723,5.2363237906094895,5.2363237906094895,24.29745113557418,62.844405268340736,64.16182280763832,1.3174175392975798,1.3174175392975798,2.0963163445851847,0.3429250064742197,0.4174950258884285,0.07457001941420882,0.07457001941420882,21.745284830902182,1.6764542772105453,1.7071306214925175,0.03067634428197219,0.03067634428197219,1.8298348305099381,1.1460653887927263,1.1104246524216768,-0.035640736371049586,0.035640736371049586,-3.1098344579268553,570.2327955867494,643.8602995125331,73.62750392578369,73.62750392578369,12.911832587605486,327.28840925752615,383.88675335668654,56.598344099160386,56.598344099160386,17.29310983775967,1.7422945006832276,1.677214162464974,-0.06508033821825365,0.06508033821825365,-3.735323631724309,False
s1_sit,msptdfast,MSPTDfast v2,mid_upslope,none,1.0,30.0,True,False,612,613,0.9841512286143937,0.0,0.04581544408844261,612,0,1,0.99836867862969,1.0,0.9991836734693879,315.4058872180614,5.016599889199736,6.964465550965612,0.026168188337292814,6.970122589168798,611,828.437908496732,828.3960536220525,-0.04185487467952953,0.04185487467952953,-0.005052264539110554,46.977980713169195,47.836359744806465,0.8583790316372699,0.8583790316372699,1.8271943974736298,30.45299025358163,32.50868246431037,2.05569221072874,2.05569221072874,6.750378841654035,9.00163666121113,10.655737704918032,1.654101043706902,1.654101043706902,18.375558867362127,30.477600635297417,32.53481889942028,2.057218264122863,2.057218264122863,6.749935103947489,21.550918083514233,23.00559106845633,1.4546729849420963,1.4546729849420963,6.749935103947496,62.844405268340736,63.61900193228469,0.774596663943953,0.774596663943953,1.2325626452131822,0.3429250064742197,0.36161508935558606,0.018690082881366366,0.018690082881366366,5.450195386311509,1.6764542772105453,1.7398345062532516,0.06338022904270635,0.06338022904270635,3.780611848726635,1.1460653887927263,1.1318120838868722,-0.014253304905854192,0.014253304905854192,-1.243672921740419,570.2327955867494,602.7812615888414,32.54846600209203,32.54846600209203,5.707926000397927,327.28840925752615,329.46912435413805,2.180715096611891,2.180715096611891,0.6662976857503072,1.7422945006832276,1.8295531114500643,0.08725861076683672,0.08725861076683672,5.008258404800045,False
s1_sit,msptdfast,MSPTDfast v2,mid_upslope,none,1.0,30.0,False,False,612,613,0.9841512286143937,0.0,0.04607779912284801,612,0,1,0.99836867862969,1.0,0.9991836734693879,314.0000000000195,12.138570649208893,15.046826346038305,-0.0010911074740898568,15.059154720104107,611,828.437908496732,828.3687943262412,-0.06911417049082047,0.06911417049082047,-0.00834270978934725,46.977980713169195,49.50477536735672,2.526794654187526,2.526794654187526,5.378678725284583,30.45299025358163,39.11591293589985,8.662922682318221,8.662922682318221,28.446870439264533,9.00163666121113,20.327868852459016,11.326232191247886,11.326232191247886,125.8241430700447,30.477600635297417,39.14740341932344,8.669802784026022,8.669802784026022,28.446474142669718,21.550918083514233,27.681394423649042,6.130476340134809,6.130476340134809,28.446474142669718,62.844405268340736,64.3054116782349,1.4610064098941677,1.4610064098941677,2.3247994847843394,0.3429250064742197,0.43046757187650836,0.08754256540228866,0.08754256540228866,25.528195304960914,1.6764542772105453,1.3580156616289645,-0.3184386155815808,0.3184386155815808,-18.994768894707423,1.1460653887927263,1.068501896978406,-0.07756349181432043,0.07756349181432043,-6.767806843554221,570.2327955867494,609.319287862276,39.086492275526666,39.086492275526666,6.854479885764558,327.28840925752615,354.3630050550821,27.074595797555958,27.074595797555958,8.272396770474195,1.7422945006832276,1.719477708367338,-0.02281679231588951,0.02281679231588951,-1.3095829842166224,False
s1_sit,msptdfast,MSPTDfast v2,mid_upslope,none,1.0,25.0,True,False,612,613,0.9841512286143937,0.0,0.03251619912891992,612,0,1,0.99836867862969,1.0,0.9991836734693879,315.6685904771366,4.935369991656655,7.110221896926831,0.02656426132852694,7.115997897318805,611,828.437908496732,828.3964496950438,-0.041458801688236235,0.041458801688236235,-0.005004454922091458,46.977980713169195,47.851420294057995,0.8734395808887996,0.8734395808887996,1.8592531386602382,30.45299025358163,32.6683359129569,2.21534565937527,2.21534565937527,7.274640818284568,9.00163666121113,11.967213114754099,2.965576453542969,2.965576453542969,32.944858420268254,30.477600635297417,32.694602125458886,2.2170014901614685,2.2170014901614685,7.274199556227086,21.550918083514233,23.11857487110809,1.567656787593858,1.567656787593858,7.2741995562271,62.844405268340736,63.60069452644476,0.7562892581040259,0.7562892581040259,1.2034313235597178,0.3429250064742197,0.36349563543674096,0.020570628962521265,0.020570628962521265,5.9985794486141435,1.6764542772105453,1.7262150688152313,0.04976079160468605,0.04976079160468605,2.968216448317523,1.1460653887927263,1.1268196106089265,-0.0192457781837998,0.0192457781837998,-1.679291458585399,570.2327955867494,599.426800417784,29.19400483103459,29.19400483103459,5.119664294473802,327.28840925752615,331.93431442178996,4.645905164263809,4.645905164263809,1.419514114417718,1.7422945006832276,1.8058596968558378,0.06356519617261025,0.06356519617261025,3.6483611781867897,False
s1_sit,msptdfast,MSPTDfast v2,mid_upslope,none,1.0,25.0,False,False,612,613,0.9841512286143937,0.0,0.03410987457978409,612,0,1,0.99836867862969,1.0,0.9991836734693879,315.9999999999722,14.353518821606343,17.90628449874428,0.04255319148936636,17.920905166736656,611,828.437908496732,828.4124386252046,-0.025469871527434407,0.025469871527434407,-0.003074445443189769,46.977980713169195,50.744620412066254,3.766639698897059,3.766639698897059,8.017883360919274,30.45299025358163,43.33627564622122,12.88328539263959,12.88328539263959,42.3054855544912,9.00163666121113,15.901639344262295,6.900002683051165,6.900002683051165,76.65275707898657,30.477600635297417,43.371642309749845,12.894041674452428,12.894041674452428,42.30661668136462,21.550918083514233,30.66838238842149,9.117464304907259,9.117464304907259,42.30661668136463,62.844405268340736,64.88053115694214,2.036125888601404,2.036125888601404,3.239947740625923,0.3429250064742197,0.47269006343731224,0.12976505696309254,0.12976505696309254,37.840651604055004,1.6764542772105453,1.2341361202882002,-0.4423181569223451,0.4423181569223451,-26.384146763508454,1.1460653887927263,1.01760087614213,-0.12846451265059633,0.12846451265059633,-11.20917828134761,570.2327955867494,609.3123985686016,39.07960298185219,39.07960298185219,6.853271731177906,327.28840925752615,385.46718874348,58.17877948595384,58.17877948595384,17.775997511777447,1.7422945006832276,1.5807114492800207,-0.16158305140320683,0.16158305140320683,-9.274152638365287,False
s1_sit,msptdfast,MSPTDfast v2,mid_upslope,none,1.0,500.0,True,False,612,613,0.9841512286143937,0.0,0.021757717714148632,612,0,1,0.99836867862969,1.0,0.9991836734693879,314.1202627661373,4.953741346802026,7.061686387951377,0.020982841393582686,7.067441085742662,611,828.437908496732,828.3908682751087,-0.04704022162331967,0.04704022162331967,-0.005678183137306932,46.977980713169195,47.85477045137297,0.8767897382037759,0.8767897382037759,1.8663844739456588,30.45299025358163,32.55394505460945,2.1009548010278216,2.1009548010278216,6.899009862523188,9.00163666121113,11.80327868852459,2.801642027313461,2.801642027313461,31.123695976154995,30.477600635297417,32.58011895226941,2.1025183169719917,2.1025183169719917,6.898569024941469,21.550918083514233,23.037623043014058,1.486704959499825,1.486704959499825,6.89856902494148,62.844405268340736,63.63510064763933,0.7906953792985902,0.7906953792985902,1.2581794288964663,0.3429250064742197,0.36202697581289495,0.01910196933867525,0.01910196933867525,5.570305162365374,1.6764542772105453,1.7371833679915791,0.060729090781033834,0.060729090781033834,3.622472238376883,1.1460653887927263,1.128843506324726,-0.017221882468000382,0.017221882468000382,-1.5026963239978863,570.2327955867494,601.5615853809877,31.328789794238332,31.328789794238332,5.494035074219489,327.28840925752615,330.7021136879876,3.4137044304614506,3.4137044304614506,1.0430263748739677,1.7422945006832276,1.819043666435564,0.07674916575233648,0.07674916575233648,4.405062733208414,True
s1_sit,msptdfast,MSPTDfast v2,mid_upslope,none,1.0,500.0,False,False,612,613,0.9841512286143937,0.0,0.02174031004699501,612,0,1,0.99836867862969,1.0,0.9991836734693879,314.00000000000585,4.919803600658547,7.08840596902293,0.022913256955860013,7.094176694616582,611,828.437908496732,828.392798690671,-0.04510980606096382,0.04510980606096382,-0.005445164398961321,46.977980713169195,47.858975352870445,0.8809946397012496,0.8809946397012496,1.875335266282067,30.45299025358163,32.57344790157766,2.12045764799603,2.12045764799603,6.963052331935251,9.00163666121113,11.311475409836065,2.3098387486249354,2.3098387486249354,25.66020864381519,30.477600635297417,32.599643763907615,2.1220431286101977,2.1220431286101977,6.96263184888829,21.550918083514233,23.051429169724823,1.5005110862105902,1.5005110862105902,6.962631848888301,62.844405268340736,63.63642555083119,0.792020282490455,0.792020282490455,1.2602876566475405,0.3429250064742197,0.36223639166080934,0.019311385186589647,0.019311385186589647,5.631372697237649,1.6764542772105453,1.7911373852266559,0.11468310801611059,0.11468310801611059,6.8408133508378155,1.1460653887927263,1.1273280963835892,-0.01873729240913713,0.01873729240913713,-1.6349235036994818,570.2327955867494,601.369285883842,31.136490297092678,31.136490297092678,5.460312093248571,327.28840925752615,331.12413518055223,3.835725923026075,3.835725923026075,1.171971207818711,1.7422945006832276,1.8161445270545837,0.07385002637135618,0.07385002637135618,4.238664952589614,True
s2_sit,msptdfast,MSPTDfast v2,mid_upslope,none,1.0,100.0,True,False,990,991,0.9951016628351869,0.0,0.02267016238397328,990,0,1,0.9989909182643795,1.0,0.999495204442201,234.15886216055213,2.75903524815756,3.318860401887974,0.006369729660233134,3.3205334466736507,989,496.8181818181818,496.8213343403781,0.0031525221962738215,0.0031525221962738215,0.0006345424365784454,17.9894720567605,19.083251846662886,1.093779789902385,1.093779789902385,6.080110558282554,4.648624180821078,5.869396455291478,1.2207722744704004,1.2207722744704004,26.260937150113467,0.0,0.0,0.0,0.0,,4.650954564424282,5.8723502315567,1.221395667132418,1.221395667132418,26.261182521003803,3.2887215114949355,4.152378670236136,0.8636571587412001,0.8636571587412001,26.261182521003803,25.22749532913968,26.666434959800924,1.4389396306612454,1.4389396306612454,5.703854512259727,0.13036258528987663,0.15571555314745886,0.02535296785758223,0.02535296785758223,19.448040096172463,0.745467018693734,0.8497665325336436,0.10429951383990965,0.10429951383990965,13.99116409236608,1.6151323746822592,1.5412477230907988,-0.0738846515914604,0.0738846515914604,-4.574526072885855,99.94805062404777,119.81888477651788,19.87083415247011,19.87083415247011,19.881162292212966,19.90885704317436,38.50340685075841,18.59454980758405,18.59454980758405,93.39837926034576,5.020280692522949,3.1119034541785693,-1.9083772383443796,1.9083772383443796,-38.01335732455473,False
s2_sit,msptdfast,MSPTDfast v2,mid_upslope,none,1.0,100.0,False,False,990,991,0.9951016628351869,0.0,0.022354158712192967,990,0,1,0.9989909182643795,1.0,0.999495204442201,234.00000000000574,4.210313447928156,5.25430152635142,-1.9944050904651548e-14,5.2569599133296725,989,496.8181818181818,496.8149646107179,-0.0032172074639333914,0.0032172074639333914,-0.0006475623440671053,17.9894720567605,19.509863033626072,1.5203909768655706,1.5203909768655706,8.451559734873946,4.648624180821078,9.121314629306571,4.472690448485493,4.472690448485493,96.21535909352625,0.0,0.0,0.0,0.0,,4.650954564424282,9.12591171233084,4.474957147906558,4.474957147906558,96.21588613520439,3.2887215114949355,6.452994056298875,3.1642725448039397,3.1642725448039397,96.21588613520439,25.22749532913968,26.825890085718864,1.5983947565791858,1.5983947565791858,6.335923307982612,0.13036258528987663,0.24055097652600227,0.11018839123612564,0.11018839123612564,84.52455203393575,0.745467018693734,1.0959034474307683,0.3504364287370343,0.3504364287370343,47.00897825783045,1.6151323746822592,1.405852024036059,-0.2092803506462002,0.2092803506462002,-12.957473574719927,99.94805062404777,119.19623836784375,19.24818774379598,19.24818774379598,19.25819225449187,19.90885704317436,39.5160604229384,19.60720337976404,19.60720337976404,98.48482681473801,5.020280692522949,3.016399840775938,-2.003880851747011,2.003880851747011,-39.91571337298986,False
s2_sit,msptdfast,MSPTDfast v2,mid_upslope,none,1.0,50.0,True,False,990,991,0.9951016628351869,0.0,0.03517443522834979,990,0,1,0.9989909182643795,1.0,0.999495204442201,234.13069185763587,2.761723278120309,3.3316039799592976,0.006682563068420458,3.333282882577768,989,496.8181818181818,496.8216471737863,0.003465355604475917,0.003465355604475917,0.0006975098197481261,17.9894720567605,19.083848536630637,1.0943764798701352,1.0943764798701352,6.083427442546125,4.648624180821078,5.891439445842859,1.2428152650217807,1.2428152650217807,26.73512025664042,0.0,0.0,0.0,0.0,,4.650954564424282,5.89440507089695,1.2434505064726684,1.2434505064726684,26.735382796124753,3.2887215114949355,4.167973796691606,0.8792522851966704,0.8792522851966704,26.73538279612474,25.22749532913968,26.66485597876371,1.4373606496240328,1.4373606496240328,5.697595543556683,0.13036258528987663,0.15630963092435385,0.025947045634477223,0.025947045634477223,19.903751967468963,0.745467018693734,0.8538707000607436,0.10840368136700962,0.10840368136700962,14.541713938862523,1.6151323746822592,1.541148808679374,-0.07398356600288514,0.07398356600288514,-4.580650302266384,99.94805062404777,119.74194139866512,19.793890774617353,19.793890774617353,19.804178921979783,19.90885704317436,38.454532344917816,18.545675301743454,18.545675301743454,93.15288799113524,5.020280692522949,3.1138576936689835,-1.9064229988539654,1.9064229988539654,-37.97443042763192,False
s2_sit,msptdfast,MSPTDfast v2,mid_upslope,none,1.0,50.0,False,False,990,991,0.9951016628351869,0.0,0.032220567329171425,990,0,1,0.9989909182643795,1.0,0.999495204442201,234.00000000006258,7.350859453994316,8.921860543130505,0.010111223458067333,8.92636878036129,989,496.8181818181818,496.82507583417595,0.006894015994134861,0.006894015994134861,0.0013876335944278768,17.9894720567605,20.79470546616126,2.80523340940076,2.80523340940076,15.593750614524254,4.648624180821078,15.520653602831871,10.872029422010794,10.872029422010794,233.87628251097914,0.0,0.0,0.0,0.0,,4.650954564424282,15.52850094446526,10.877546380040979,10.877546380040979,233.8777175602758,3.2887215114949355,10.980308319493094,7.691586807998158,7.691586807998158,233.87771756027578,25.22749532913968,27.281355905776838,2.0538605766371596,2.0538605766371596,8.141357474615383,0.13036258528987663,0.4024839658782506,0.272121380588374,0.272121380588374,208.74193311162085,0.745467018693734,0.8229803130332212,0.07751329433948717,0.07751329433948717,10.39795086780795,1.6151323746822592,1.1673900133989559,-0.44774236128330336,0.44774236128330336,-27.721712987852563,99.94805062404777,116.98979827511472,17.041747651066956,17.041747651066956,17.050605334134115,19.90885704317436,43.02694899367825,23.118091950503892,23.118091950503892,116.11963409235386,5.020280692522949,2.7189889362665123,-2.3012917562564366,2.3012917562564366,-45.839902133040276,False
s2_sit,msptdfast,MSPTDfast v2,mid_upslope,none,1.0,30.0,True,False,990,991,0.9951016628351869,0.0,0.04433341185754073,990,0,1,0.9989909182643795,1.0,0.999495204442201,234.15984890218706,2.857095572336515,3.4584690944200407,0.005426813430633987,3.460214629301227,989,496.8181818181818,496.8203914241485,0.0022096059666978363,0.0022096059666978363,0.00044475142971045197,17.9894720567605,19.09743137937705,1.1079593226165478,1.1079593226165478,6.158931841472097,4.648624180821078,6.084405246979357,1.4357810661582793,1.4357810661582793,30.886150618109976,0.0,0.0,0.0,0.0,,4.650954564424282,6.087467559258751,1.4365129948344686,1.4365129948344686,30.886412131877858,3.2887215114949355,4.304489591404984,1.0157680799100484,1.0157680799100484,30.88641213187785,25.22749532913968,26.662616899650278,1.4351215705105993,1.4351215705105993,5.688719992955166,0.13036258528987663,0.16144287740418473,0.0310802921143081,0.0310802921143081,23.841420485177856,0.745467018693734,0.920105384306492,0.17463836561275803,0.17463836561275803,23.426705841228646,1.6151323746822592,1.536132243894518,-0.07900013078774126,0.07900013078774126,-4.891248050382418,99.94805062404777,119.39984734501557,19.451796720967806,19.451796720967806,19.461907060234,19.90885704317436,38.63299398143241,18.724136938258052,18.724136938258052,94.049281169948,5.020280692522949,3.0906185371602546,-1.9296621553626943,1.9296621553626943,-38.43733594889771,False
s2_sit,msptdfast,MSPTDfast v2,mid_upslope,none,1.0,30.0,False,False,990,991,0.9951016628351869,0.0,0.04750077171204912,990,0,1,0.9989909182643795,1.0,0.999495204442201,235.3333333333356,11.60026963262502,14.019887330483245,0.01685203909675314,14.026970487473404,989,496.8181818181818,496.8318166498146,0.013634831632771238,0.013634831632771238,0.00274443088674261,17.9894720567605,23.54792690705379,5.558454850293288,5.558454850293288,30.898376743659924,4.648624180821078,24.482957433249737,19.83433325242866,19.83433325242866,426.67104246154304,0.0,0.708502024291498,0.708502024291498,0.708502024291498,,4.650954564424282,24.49533374945635,19.844379185032068,19.844379185032068,426.67325406324414,3.2887215114949355,17.320816601668284,14.032095090173348,14.032095090173348,426.6732540632441,25.22749532913968,28.44290835149015,3.2154130223504716,3.2154130223504716,12.745668883888067,0.13036258528987663,0.6089678449060865,0.4786052596162098,0.4786052596162098,367.13391235067513,0.745467018693734,0.6944217909521523,-0.05104522774158171,0.05104522774158171,-6.847415977037747,1.6151323746822592,0.9159392189877983,-0.6991931556944609,0.6991931556944609,-43.290145541910235,99.94805062404777,124.51611506101636,24.568064436968598,24.568064436968598,24.580834026849402,19.90885704317436,51.2040865046945,31.29522946152014,31.29522946152014,157.19249675485278,5.020280692522949,2.4317612823656263,-2.5885194101573226,2.5885194101573226,-51.561248637204365,False
s2_sit,msptdfast,MSPTDfast v2,mid_upslope,none,1.0,25.0,True,False,990,991,0.9951016628351869,0.0,0.035184694930566474,990,0,1,0.9989909182643795,1.0,0.999495204442201,234.15731010690817,3.096548349203201,3.803108642244038,0.006250153453061068,3.805027667150829,989,496.8181818181818,496.821214764171,0.003032945989161817,0.003032945989161817,0.0006104740325851782,17.9894720567605,19.185649455029818,1.1961773982693167,1.1961773982693167,6.649319082267283,4.648624180821078,6.801862702091762,2.1532385212706844,2.1532385212706844,46.31990966605439,0.0,0.0,0.0,0.0,,4.650954564424282,6.8052786877595475,2.1543241233352655,2.1543241233352655,46.32004233741505,3.2887215114949355,4.812058707979066,1.5233371964841305,1.5233371964841305,46.32004233741506,25.22749532913968,26.702478930120602,1.4749836009809236,1.4749836009809236,5.846730251009918,0.13036258528987663,0.18021018649886572,0.049847601208989095,0.049847601208989095,38.23765929322977,0.745467018693734,1.017911070462355,0.2724440517686211,0.2724440517686211,36.54676128341922,1.6151323746822592,1.5032232969645898,-0.11190907771766945,0.11190907771766945,-6.928786734256691,99.94805062404777,120.19580186101288,20.247751236965115,20.247751236965115,20.258275284554124,19.90885704317436,38.54333549686542,18.634478453691056,18.634478453691056,93.59893645968884,5.020280692522949,3.118458750690841,-1.9018219418321078,1.9018219418321078,-37.88278102984606,False
s2_sit,msptdfast,MSPTDfast v2,mid_upslope,none,1.0,25.0,False,False,990,991,0.9951016628351869,0.0,0.03537050274901565,990,0,1,0.9989909182643795,1.0,0.999495204442201,234.00000000001484,13.65217391304307,16.797250485197505,0.01011122345802871,16.805745923351004,989,496.8181818181818,496.82507583417595,0.006894015994134861,0.006894015994134861,0.0013876335944278768,17.9894720567605,25.09961405334349,7.110141996582989,7.110141996582989,39.52390583864286,4.648624180821078,28.963190376079705,24.314566195258628,24.314566195258628,523.0486537409008,0.0,0.5060728744939271,0.5060728744939271,0.5060728744939271,,4.650954564424282,28.977858997114332,24.32690443269005,24.32690443269005,523.0518616279227,3.2887215114949355,20.49044060112715,17.201719089632217,17.201719089632217,523.0518616279227,25.22749532913968,28.98487700897273,3.7573816798330526,3.7573816798330526,14.893994155230269,0.13036258528987663,0.7069355717736532,0.5765729864837765,0.5765729864837765,442.28409953799115,0.745467018693734,0.6533875058978419,-0.0920795127958921,0.0920795127958921,-12.351923088058419,1.6151323746822592,0.7973424883585225,-0.8177898863237367,0.8177898863237367,-50.632994492765235,99.94805062404777,118.88966700222328,18.94161637817551,18.94161637817551,18.95146154418154,19.90885704317436,54.87397208281948,34.96511503964511,34.96511503964511,175.62592851925018,5.020280692522949,2.1665948807712883,-2.8536858117516606,2.8536858117516606,-56.84315253531246,False
s2_sit,msptdfast,MSPTDfast v2,mid_upslope,none,1.0,500.0,True,False,994,991,0.9951016628351869,0.004028197381671702,0.022443157355945882,990,4,1,0.9989909182643795,0.9959758551307847,0.9974811083123426,233.66504613161652,2.825306080226066,3.4141125128472045,0.00416870012476013,3.4158443392571174,985,496.8181818181818,496.59550559668673,-0.22267622149507815,0.22267622149507815,-0.04482046544274217,17.9894720567605,19.268357687959984,1.2788856311994827,1.2788856311994827,7.109078171745865,4.648624180821078,7.066718351149876,2.418094170328798,2.418094170328798,52.017415826066944,0.0,0.4048582995951417,0.4048582995951417,0.4048582995951417,,4.650954564424282,7.070282312719168,2.4193277482948856,2.4193277482948856,52.017875358332205,3.2887215114949355,4.99944456822703,1.7107230567320948,1.7107230567320948,52.01787535833221,25.22749532913968,26.78702615057443,1.5595308214347519,1.5595308214347519,6.181869428921764,0.13036258528987663,0.18663678976995438,0.05627420448007775,0.05627420448007775,43.167450503490244,0.745467018693734,0.8698656334240898,0.12439861473035585,0.12439861473035585,16.68733983004867,1.6151323746822592,1.4962939236712842,-0.11883845101097501,0.11883845101097501,-7.357814930454464,99.94805062404777,119.75458069133735,19.806530067289586,19.806530067289586,19.816824784098472,19.90885704317436,38.6137860745204,18.704929031346037,18.704929031346037,93.95280196538914,5.020280692522949,3.101342625668047,-1.9189380668549019,1.9189380668549019,-38.22372063205368,True
s2_sit,msptdfast,MSPTDfast v2,mid_upslope,none,1.0,500.0,False,False,994,991,0.9951016628351869,0.004028197381671702,0.02243544430243164,990,4,1,0.9989909182643795,0.9959758551307847,0.9974811083123426,234.00000000000574,2.8548223350254913,3.527412591957598,0.004060913705506484,3.5292021825135804,985,496.8181818181818,496.5965621840242,-0.2216196341576051,0.2216196341576051,-0.04460779461543744,17.9894720567605,19.281948836216987,1.2924767794564858,1.2924767794564858,7.18462873940077,4.648624180821078,7.206890539966851,2.5582663591457733,2.5582663591457733,55.03276366587052,0.0,0.4048582995951417,0.4048582995951417,0.4048582995951417,,4.650954564424282,7.210526585258069,2.5595720208337873,2.5595720208337873,55.03326221271361,3.2887215114949355,5.098612244361862,1.809890732866926,1.809890732866926,55.03326221271361,25.22749532913968,26.787893814680963,1.5603984855412847,1.5603984855412847,6.1853087878244715,0.13036258528987663,0.1903327032589473,0.059970117969070674,0.059970117969070674,46.002553444088285,0.745467018693734,1.1174391736158897,0.37197215492215574,0.37197215492215574,49.89786879826752,1.6151323746822592,1.4891579662030667,-0.1259744084791925,0.1259744084791925,-7.7996336680437794,99.94805062404777,119.62462178700757,19.676571162959803,19.676571162959803,19.68679833183817,19.90885704317436,38.599288170355365,18.690431127181004,18.690431127181004,93.87998058677564,5.020280692522949,3.099140617802389,-1.9211400747205598,1.9211400747205598,-38.267582878022075,True
s3_sit,msptdfast,MSPTDfast v2,mid_upslope,none,1.0,100.0,True,False,603,603,0.9953320956006322,0.0,0.026445677211610445,602,1,1,0.9983416252072969,0.9983416252072969,0.9983416252072969,289.24661553110786,4.919892123916876,6.0847888640892185,0.01622562954778323,6.089835758861297,601,815.7774086378738,815.9541181953628,0.17670955748894812,0.17670955748894812,0.02166149192388215,61.9273119712334,64.10188358198448,2.17457161075108,2.17457161075108,3.5114903933844515,38.473190094833306,42.187044715340946,3.7138546205076395,3.7138546205076395,9.653097680107336,19.30116472545757,24.126455906821963,4.825291181364392,4.825291181364392,24.999999999999996,38.504571690160056,42.22119837485794,3.7166266846978857,3.7166266846978857,9.652429624733832,27.22684374879574,29.854895680684493,2.628051931888752,2.628051931888752,9.652429624733834,83.23871043837475,85.59665975616122,2.3579493177864634,2.3579493177864634,2.832755703888705,0.3270935314279401,0.3487857559597768,0.021692224531836668,0.021692224531836668,6.631810918772493,1.4540556028720704,1.5080329362718567,0.05397733339978639,0.05397733339978639,3.712191837311422,1.077286974252094,1.0422754342906169,-0.03501153996147721,0.03501153996147721,-3.249973386690576,901.0824037873131,943.9306667292743,42.84826294196125,42.84826294196125,4.755199165122632,679.6120627362407,836.5816727899504,156.96961005370974,156.96961005370974,23.096942897352616,1.3258775898700104,1.128318605858674,-0.1975589840113363,0.1975589840113363,-14.90024309338429,False
s3_sit,msptdfast,MSPTDfast v2,mid_upslope,none,1.0,100.0,False,False,603,603,0.9953320956006322,0.0,0.027834604243910887,602,1,1,0.9983416252072969,0.9983416252072969,0.9983416252072969,289.99999999997306,5.876871880202561,7.319656484307295,0.006655574043247422,7.325750630220905,601,815.7774086378738,815.9468438538206,0.16943521594680533,0.16943521594680533,0.02076978525670575,61.9273119712334,64.28294229851815,2.35563032728475,2.35563032728475,3.80386335576618,38.473190094833306,42.661067990965385,4.187877896132079,4.187877896132079,10.885184945176883,19.30116472545757,25.9567387687188,6.655574043261229,6.655574043261229,34.482758620689644,38.504571690160056,42.69555187312143,4.1909801829613755,4.1909801829613755,10.884370346164353,27.22684374879574,30.190314255986166,2.9634705071904257,2.9634705071904257,10.88437034616435,83.23871043837475,85.7504417844831,2.5117313461083484,2.5117313461083484,3.0175039148016265,0.3270935314279401,0.3520718217623134,0.024978290334373265,0.024978290334373265,7.6364366563073025,1.4540556028720704,1.4145991119601364,-0.03945649091193393,0.03945649091193393,-2.7135475998303593,1.077286974252094,1.0392491527845156,-0.0380378214675785,0.0380378214675785,-3.530890317687749,901.0824037873131,948.1733357664186,47.09093197910556,47.09093197910556,5.2260405686737466,679.6120627362407,848.2435924767328,168.63152974049217,168.63152974049217,24.81291003893475,1.3258775898700104,1.1178078374844038,-0.20806975238560654,0.20806975238560654,-15.6929835736952,False
s3_sit,msptdfast,MSPTDfast v2,mid_upslope,none,1.0,50.0,True,False,604,603,0.9953320956006322,0.001658374792703151,0.037019516633786956,602,2,1,0.9983416252072969,0.9966887417218543,0.9975144987572493,289.27456383724837,4.903958030824687,6.071247366591461,0.003529832087163148,6.076312045428397,600,815.7774086378738,815.4894206235732,-0.28798801430059484,0.28798801430059484,-0.035302278691617166,61.9273119712334,64.72107419488715,2.7937622236537507,2.7937622236537507,4.511357161685807,38.473190094833306,45.45971071394428,6.986520619110976,6.986520619110976,18.15945234042139,19.30116472545757,24.292845257903494,4.991680532445923,4.991680532445923,25.86206896551724,38.504571690160056,45.49669527430877,6.992123584148715,6.992123584148715,18.15920364057853,27.22684374879574,32.17102175004168,4.944178001245941,4.944178001245941,18.159203640578518,83.23871043837475,85.68932401086218,2.450613572487427,2.450613572487427,2.9440792145641455,0.3270935314279401,0.3754379220679067,0.048344390639966595,0.048344390639966595,14.779989817871723,1.4540556028720704,1.4972183825948924,0.04316277972282201,0.04316277972282201,2.968440796732003,1.077286974252094,1.041975644991051,-0.03531132926104297,0.03531132926104297,-3.2778015612374634,901.0824037873131,966.9369345557353,65.85453076842225,65.85453076842225,7.308380509000175,679.6120627362407,873.0095490911624,193.39748635492174,193.39748635492174,28.45704144453655,1.3258775898700104,1.1075903299824785,-0.21828725988753184,0.21828725988753184,-16.463605807601954,False
s3_sit,msptdfast,MSPTDfast v2,mid_upslope,none,1.0,50.0,False,False,604,603,0.9953320956006322,0.001658374792703151,0.031711865577480944,602,2,1,0.9983416252072969,0.9966887417218543,0.9975144987572493,289.9999999999776,8.113333333335495,10.110720383171452,0.01999999999997082,10.119136732631967,600,815.7774086378738,815.514950166113,-0.26245847176085135,0.26245847176085135,-0.03217280461334245,61.9273119712334,65.14658200680137,3.219270035567966,3.219270035567966,5.198465641562787,38.473190094833306,47.247005557069905,8.773815462236598,8.773815462236598,22.805011595372914,19.30116472545757,25.291181364392678,5.990016638935106,5.990016638935106,31.034482758620683,38.504571690160056,47.28561099541998,8.781039305259924,8.781039305259924,22.805186292992687,27.22684374879574,33.435976187410645,6.209132438614905,6.209132438614905,22.805186292992698,83.23871043837475,85.84980949735824,2.611099058983484,2.611099058983484,3.1368807195981185,0.3270935314279401,0.3894705926917582,0.06237706126381809,0.06237706126381809,19.07009930508515,1.4540556028720704,1.8348776760086603,0.3808220731365899,0.3808220731365899,26.19033772741462,1.077286974252094,1.0257560239949715,-0.05153095025712262,0.05153095025712262,-4.783400476265663,901.0824037873131,958.8937985448314,57.811394757518315,57.811394757518315,6.415772243973796,679.6120627362407,880.178413184121,200.56635044788038,200.56635044788038,29.511887949775954,1.3258775898700104,1.089431170069203,-0.23644641980080738,0.23644641980080738,-17.833201315665097,False
s3_sit,msptdfast,MSPTDfast v2,mid_upslope,none,1.0,30.0,True,False,605,603,0.9953320956006322,0.0033112582781456954,0.053947531779307466,602,3,1,0.9983416252072969,0.9950413223140496,0.9966887417218543,289.3991072887113,4.87254932385995,6.02790072073156,-0.012642681625535558,6.0329253969899925,599,815.7774086378738,815.0328635413106,-0.744545096563229,0.744545096563229,-0.0912681680909032,61.9273119712334,65.28687421787377,3.3595622466403725,3.3595622466403725,5.425008997970012,38.473190094833306,47.36471649074043,8.891526395907121,8.891526395907121,23.110967335929843,19.30116472545757,24.625623960066555,5.324459234608984,5.324459234608984,27.586206896551715,38.504571690160056,47.403303395361625,8.89873170520157,8.89873170520157,23.110844542845967,27.22684374879574,33.5191972815035,6.292353532707761,6.292353532707761,23.110844542845975,83.23871043837475,86.03031619077423,2.7916057523994766,2.7916057523994766,3.3537349842369606,0.3270935314279401,0.3896207612113607,0.06252722978342057,0.06252722978342057,19.1160092681917,1.4540556028720704,1.5094307286187743,0.05537512574670389,0.05537512574670389,3.808322435354342,1.077286974252094,1.0323522732320123,-0.04493470102008179,0.04493470102008179,-4.171098518227019,901.0824037873131,966.3723416993334,65.28993791202038,65.28993791202038,7.245723325369816,679.6120627362407,872.5309721183968,192.91890938215613,192.91890938215613,28.38662230411712,1.3258775898700104,1.1075507604653867,-0.21832682940462367,0.21832682940462367,-16.466590209585526,False
s3_sit,msptdfast,MSPTDfast v2,mid_upslope,none,1.0,30.0,False,False,605,603,0.9953320956006322,0.0033112582781456954,0.04510765430705873,602,3,1,0.9983416252072969,0.9950413223140496,0.9966887417218543,290.0000000000009,11.904284919310047,14.894422236651558,-0.006677796327291164,14.906869066753194,599,815.7774086378738,815.0609080841639,-0.7165005537099205,0.7165005537099205,-0.08783039909211035,61.9273119712334,67.01383524001542,5.086523268782024,5.086523268782024,8.213699427394534,38.473190094833306,53.202140360642986,14.72895026580968,14.72895026580968,38.28367294082972,19.30116472545757,32.11314475873544,12.811980033277866,12.811980033277866,66.37931034482756,38.504571690160056,53.24573366081234,14.741161970652286,14.741161970652286,38.284186327982006,27.22684374879574,37.65041934081322,10.423575592017482,10.423575592017482,38.284186327982006,83.23871043837475,86.97214583194314,3.733435393568385,3.733435393568385,4.4852153209802665,0.3270935314279401,0.4329020398503836,0.10580850842244349,0.10580850842244349,32.348089538956074,1.4540556028720704,1.4712753504340095,0.017219747561939114,0.017219747561939114,1.184256470517801,1.077286974252094,0.9957872851066458,-0.08149968914544825,0.08149968914544825,-7.565271937129785,901.0824037873131,986.4521326428553,85.36972885554223,85.36972885554223,9.474131166775338,679.6120627362407,967.1657200110817,287.55365727484104,287.55365727484104,42.31144104727897,1.3258775898700104,1.0199411664751235,-0.3059364233948869,0.3059364233948869,-23.07425856898909,False
s3_sit,msptdfast,MSPTDfast v2,mid_upslope,none,1.0,25.0,True,False,605,603,0.9953320956006322,0.0033112582781456954,0.03487792353431477,602,3,1,0.9983416252072969,0.9950413223140496,0.9966887417218543,289.44151502077864,4.98099832796823,6.145993944530049,0.0023067190839020867,6.151130155682409,599,815.7774086378738,815.0501211812365,-0.7272874566373275,0.7272874566373275,-0.08915268416806241,61.9273119712334,65.28223120850711,3.3549192372737124,3.3549192372737124,5.417511483192015,38.473190094833306,47.38365975372424,8.910469658890932,8.910469658890932,23.160204903537615,19.30116472545757,24.625623960066555,5.324459234608984,5.324459234608984,27.586206896551715,38.504571690160056,47.422342827847615,8.91777113768756,8.91777113768756,23.160291742620576,27.22684374879574,33.53266019332429,6.305816444528549,6.305816444528549,23.160291742620586,83.23871043837475,86.01802208538048,2.779311647005727,2.779311647005727,3.3389652871465048,0.3270935314279401,0.3898329603538217,0.06273942892588158,0.06273942892588158,19.180883416431396,1.4540556028720704,1.48207573278655,0.028020129914479552,0.028020129914479552,1.9270329043218024,1.077286974252094,1.032656328032819,-0.04463064621927515,0.04463064621927515,-4.142874395214882,901.0824037873131,964.906783738447,63.82437995113389,63.82437995113389,7.083079159339424,679.6120627362407,873.4841033741656,193.8720406379249,193.8720406379249,28.526868675249986,1.3258775898700104,1.104664389438945,-0.2212132004310654,0.2212132004310654,-16.68428534588576,False
s3_sit,msptdfast,MSPTDfast v2,mid_upslope,none,1.0,25.0,False,False,605,603,0.9953320956006322,0.0033112582781456954,0.03706942542935694,602,3,1,0.9983416252072969,0.9950413223140496,0.9966887417218543,290.0000000000009,14.497495826378655,17.691475739927693,-0.040066777963239854,17.70621635625237,599,815.7774086378738,815.0166112956811,-0.7607973421927454,0.7607973421927454,-0.09326040830954976,61.9273119712334,66.90010226952052,4.972790298287116,4.972790298287116,8.030043836872956,38.473190094833306,55.5235256160725,17.05033552123919,17.05033552123919,44.31744671864093,19.30116472545757,22.795341098169715,3.4941763727121433,3.4941763727121433,18.103448275862053,38.504571690160056,55.56913718252481,17.064565492364757,17.064565492364757,44.31828414994589,27.22684374879574,39.293313726448815,12.066469977653075,12.066469977653075,44.31828414994589,83.23871043837475,86.0655730460181,2.826862607643349,2.826862607643349,3.3960913050619626,0.3270935314279401,0.4565508871408921,0.12945735571295197,0.12945735571295197,39.578084943410715,1.4540556028720704,1.4286867876104186,-0.0253688152616518,0.0253688152616518,-1.7446936149857661,1.077286974252094,0.9815842024024499,-0.09570277184964415,0.09570277184964415,-8.883684119181497,901.0824037873131,955.1399705805075,54.05756679319438,54.05756679319438,5.99918126976918,679.6120627362407,872.9386467139441,193.32658397770342,193.32658397770342,28.44660867250292,1.3258775898700104,1.094166209934683,-0.23171137993532742,0.23171137993532742,-17.476076351667164,False
s3_sit,msptdfast,MSPTDfast v2,mid_upslope,none,1.0,500.0,True,False,605,603,0.9953320956006322,0.0033112582781456954,0.022464734774069153,602,3,1,0.9983416252072969,0.9950413223140496,0.9966887417218543,289.0236816251163,4.891738370553416,6.046043930634301,-0.015978400474081146,6.051075908260735,599,815.7774086378738,815.6756158998265,-0.10179273804726563,0.10179273804726563,-0.012478004044906293,61.9273119712334,64.15138203076047,2.2240700595270724,2.2240700595270724,3.5914203099275515,38.473190094833306,42.26070455145327,3.7875144566199666,3.7875144566199666,9.844555253370071,19.30116472545757,24.459234608985025,5.158069883527453,5.158069883527453,26.724137931034473,38.504571690160056,42.29477225923258,3.7902005690725247,3.7902005690725247,9.84350793347773,27.22684374879574,29.906920273244033,2.6800765244482925,2.6800765244482925,9.843507933477724,83.23871043837475,85.65264591758377,2.413935479209016,2.413935479209016,2.900015469360446,0.3270935314279401,0.3491651653355917,0.0220716339076516,0.0220716339076516,6.747805073153537,1.4540556028720704,1.5163474893680884,0.06229188649601802,0.06229188649601802,4.284009935588312,1.077286974252094,1.044101386982348,-0.033185587269746186,0.033185587269746186,-3.080477910055978,901.0824037873131,943.8352172453305,42.752813458017386,42.752813458017386,4.7446064065089155,679.6120627362407,834.0311141708703,154.41905143462964,154.41905143462964,22.72164664248464,1.3258775898700104,1.1316546843502582,-0.1942229055197522,0.1942229055197522,-14.648630235826966,True
s3_sit,msptdfast,MSPTDfast v2,mid_upslope,none,1.0,500.0,False,False,605,603,0.9953320956006322,0.0033112582781456954,0.024571726881510898,602,3,1,0.9983416252072969,0.9950413223140496,0.9966887417218543,288.9999999999967,4.8580968280483114,6.053186635764817,-0.016694490818059467,6.058222673773711,599,815.7774086378738,815.6710963455149,-0.1063122923588935,0.1063122923588935,-0.013032022121868525,61.9273119712334,64.16154317364345,2.234231202410051,2.234231202410051,3.6078284868038524,38.473190094833306,42.232460250798916,3.759270155965609,3.759270155965609,9.771142311566345,19.30116472545757,24.126455906821963,4.825291181364392,4.825291181364392,24.999999999999996,38.504571690160056,42.26650438862357,3.761932698463511,3.761932698463511,9.77009361053322,27.22684374879574,29.8869318702467,2.6600881214509577,2.6600881214509577,9.770093610533225,83.23871043837475,85.67484197960249,2.436131541227738,2.436131541227738,2.926681021844172,0.3270935314279401,0.3488414005754711,0.021747869147530963,0.021747869147530963,6.648822754944055,1.4540556028720704,1.5039436801216655,0.0498880772495951,0.0498880772495951,3.4309607659470167,1.077286974252094,1.0445581716242767,-0.03272880262781741,0.03272880262781741,-3.0380765209325364,901.0824037873131,944.9964202315109,43.91401644419784,43.91401644419784,4.873473975257326,679.6120627362407,836.171942847785,156.55988011154432,156.55988011154432,23.03665409957646,1.3258775898700104,1.1301460522737679,-0.1957315375962425,0.1957315375962425,-14.762413897909845,True
s4_sit,msptdfast,MSPTDfast v2,mid_upslope,none,1.0,100.0,True,False,679,681,0.9920795607314664,0.0,0.021802284617540725,679,0,2,0.9970631424375918,1.0,0.9985294117647059,265.69425089327103,5.127860668814889,7.385192105144843,0.019915647783454143,7.390625633540537,677,724.3264705882353,725.3999897505577,1.0735191623223272,1.0735191623223272,0.14820929593398785,47.66481403611934,53.00843335796926,5.343619321849921,5.343619321849921,11.21082590986434,25.291933202608096,44.07737582397567,18.785442621367576,18.785442621367576,74.27444343965936,4.860088365243005,6.794682422451995,1.9345940572089901,1.9345940572089901,39.80573832863346,25.31055348154773,44.10975538026389,18.799201898716163,18.799201898716163,74.27416359117328,17.89726400238718,31.1903071458644,13.29304314347722,13.29304314347722,74.27416359117329,64.98889855524969,68.16856133350018,3.1796627782504885,3.1796627782504885,4.892624508087837,0.2753895572975743,0.4575468006911934,0.1821572433936191,0.1821572433936191,66.1452980211547,1.4191767991993267,1.3737545265479403,-0.04542227265138643,0.04542227265138643,-3.200607047480824,1.2617883725140517,1.2082276060368893,-0.05356076647716246,0.05356076647716246,-4.244829611993115,966.4383586160568,995.8542059740021,29.415847357945268,29.415847357945268,3.0437375643976785,276.63397826643387,307.8909629748853,31.256984708451455,31.256984708451455,11.299040307458899,3.4935634612652433,3.234437920333615,-0.25912554093162843,0.25912554093162843,-7.417227246754591,False
s4_sit,msptdfast,MSPTDfast v2,mid_upslope,none,1.0,100.0,False,False,679,681,0.9920795607314664,0.0,0.024767893875308707,679,0,2,0.9970631424375918,1.0,0.9985294117647059,265.999999999996,6.215657311670948,8.230074186944519,0.011816838995653488,8.236150780697834,677,724.3264705882353,725.3982300884956,1.0717595002602138,1.0717595002602138,0.14796635823481963,47.66481403611934,53.19403013277666,5.529216096657322,5.529216096657322,11.600204906846807,25.291933202608096,44.732918230448306,19.44098502784021,19.44098502784021,76.86634656237136,4.860088365243005,7.533234859675036,2.6731464944320313,2.6731464944320313,55.00201423391967,25.31055348154773,44.76579479694739,19.45524131539966,19.45524131539966,76.86612357008791,17.89726400238718,31.65419706612697,13.75693306373979,13.75693306373979,76.86612357008792,64.98889855524969,68.24383848841082,3.2549399331611255,3.2549399331611255,5.008455298552213,0.2753895572975743,0.46383963398398953,0.18845007668641522,0.18845007668641522,68.43036407614542,1.4191767991993267,1.0913178266156989,-0.32785897258362784,0.32785897258362784,-23.102052737093768,1.2617883725140517,1.2039357472677004,-0.057852625246351375,0.057852625246351375,-4.584970547088086,966.4383586160568,996.8802578922694,30.441899276212553,30.441899276212553,3.149905941213412,276.63397826643387,310.13082291970534,33.49684465327147,33.49684465327147,12.108723904122046,3.4935634612652433,3.214386266115727,-0.27917719514951633,0.27917719514951633,-7.991187171633871,False
s4_sit,msptdfast,MSPTDfast v2,mid_upslope,none,1.0,50.0,True,False,679,681,0.9920795607314664,0.0,0.03143373313447616,679,0,2,0.9970631424375918,1.0,0.9985294117647059,265.91414405317926,5.146533398658724,7.406077025066097,0.016328320841149633,7.411534855334321,677,724.3264705882353,725.3964692957553,1.0699987075199715,1.0699987075199715,0.147723264435029,47.66481403611934,52.99529731135976,5.330483275240418,5.330483275240418,11.183266698997496,25.291933202608096,44.059963587328895,18.7680303847208,18.7680303847208,74.20559841896721,4.860088365243005,6.646971935007386,1.786883569764381,1.786883569764381,36.7664831475762,25.31055348154773,44.09234288124705,18.78178939969932,18.78178939969932,74.20536818126833,17.89726400238718,31.177994649732184,13.280730647345006,13.280730647345006,74.20536818126833,64.98889855524969,68.15376529481038,3.1648667395606935,3.1648667395606935,4.869857483228635,0.2753895572975743,0.4574654755297321,0.1820759182321578,0.1820759182321578,66.11576706789003,1.4191767991993267,1.3758426631382974,-0.043334136061029316,0.043334136061029316,-3.053469876725552,1.2617883725140517,1.2085383567413628,-0.05325001577268895,0.05325001577268895,-4.220201812970498,966.4383586160568,995.6783714882025,29.240012872145712,29.240012872145712,3.025543492915318,276.63397826643387,307.21420676973577,30.580228503301896,30.580228503301896,11.054400726525802,3.4935634612652433,3.2409906493500373,-0.252572811915206,0.252572811915206,-7.229661482197125,False
s4_sit,msptdfast,MSPTDfast v2,mid_upslope,none,1.0,50.0,False,False,679,681,0.9920795607314664,0.0,0.03718833314435583,679,0,2,0.9970631424375918,1.0,0.9985294117647059,267.99999999998624,8.80649926145043,11.52711785684887,0.026587887740101415,11.53560999495319,677,724.3264705882353,725.3982300884956,1.0717595002602138,1.0717595002602138,0.14796635823481963,47.66481403611934,53.57310440255047,5.908290366431132,5.908290366431132,12.395496522768262,25.291933202608096,46.36888887221273,21.076955669604633,21.076955669604633,83.33469608970493,4.860088365243005,10.19202363367799,5.331935268434986,5.331935268434986,109.70860749295015,25.31055348154773,46.40293726916315,21.092383787615418,21.092383787615418,83.33434432001852,17.89726400238718,32.81183160999924,14.91456760761206,14.91456760761206,83.33434432001853,64.98889855524969,68.29010716824364,3.301208612993946,3.301208612993946,5.079650042364475,0.2753895572975743,0.48047708475785555,0.20508752746028125,0.20508752746028125,74.47178806372544,1.4191767991993267,1.5565484485137278,0.13737164931440105,0.13737164931440105,9.679671299016697,1.2617883725140517,1.1659992890938173,-0.0957890834202344,0.0957890834202344,-7.591533216412457,966.4383586160568,998.954881215317,32.516522599260156,32.516522599260156,3.3645728472350718,276.63397826643387,315.3722277455504,38.73824947911652,38.73824947911652,14.003431437408834,3.4935634612652433,3.167542330395994,-0.3260211308692491,0.3260211308692491,-9.33205119884028,False
s4_sit,msptdfast,MSPTDfast v2,mid_upslope,none,1.0,30.0,True,False,679,681,0.9920795607314664,0.0,0.04645946241404361,679,0,2,0.9970631424375918,1.0,0.9985294117647059,266.3991757673424,5.205921692949463,7.470606802448116,0.018323564232844678,7.476107868964895,677,724.3264705882353,725.3991922951066,1.0727217068712207,1.0727217068712207,0.14809919979868316,47.66481403611934,52.9793725609954,5.3145585248760625,5.3145585248760625,11.149856833279175,25.291933202608096,44.06423966150273,18.772306458894636,18.772306458894636,74.22250528859867,4.860088365243005,6.646971935007386,1.786883569764381,1.786883569764381,36.7664831475762,25.31055348154773,44.09661486255102,18.786061381003293,18.786061381003293,74.22224644237426,17.89726400238718,31.181015396681328,13.28375139429415,13.28375139429415,74.22224644237427,64.98889855524969,68.1276163735781,3.1387178183284163,3.1387178183284163,4.8296215016785755,0.2753895572975743,0.4576854006707072,0.18229584337313287,0.18229584337313287,66.19562671948076,1.4191767991993267,1.3788362780726866,-0.040340521126640105,0.040340521126640105,-2.8425296375616824,1.2617883725140517,1.2090319972006398,-0.05275637531341193,0.05275637531341193,-4.1810795266957035,966.4383586160568,994.8762140152949,28.43785539923806,28.43785539923806,2.9425420820383383,276.63397826643387,305.45073321523876,28.816754948804885,28.816754948804885,10.41692532833066,3.4935634612652433,3.2570758745379926,-0.23648758672725068,0.23648758672725068,-6.769236893770446,False
s4_sit,msptdfast,MSPTDfast v2,mid_upslope,none,1.0,30.0,False,False,679,681,0.9920795607314664,0.0,0.04363960381598016,679,0,2,0.9970631424375918,1.0,0.9985294117647059,266.6666666666746,12.469719350074188,15.496615260218437,0.016740521910452503,15.508063969157208,677,724.3264705882353,725.3687315634219,1.0422609751865366,1.0422609751865366,0.14389381273614124,47.66481403611934,54.673163671612166,7.008349635492827,7.008349635492827,14.703402871103316,25.291933202608096,48.86702583223073,23.575092629622635,23.575092629622635,93.21190452611025,4.860088365243005,16.100443131462335,11.24035476621933,11.24035476621933,231.27881473524013,25.31055348154773,48.90293331701921,23.592379835471483,23.592379835471483,93.21163147487528,17.89726400238718,34.57959576837783,16.68233176599065,16.68233176599065,93.21163147487528,64.98889855524969,69.15606414640274,4.167165591153051,4.167165591153051,6.412119121561007,0.2753895572975743,0.5000226111071496,0.22463305380957532,0.22463305380957532,81.56919819833486,1.4191767991993267,1.233486474867531,-0.18569032433179578,0.18569032433179578,-13.084368659109904,1.2617883725140517,1.1383031005087347,-0.123485272005317,0.123485272005317,-9.786527970556476,966.4383586160568,1009.6101129716122,43.171754355555436,43.171754355555436,4.467098596684174,276.63397826643387,347.93804444561874,71.30406617918487,71.30406617918487,25.775599449504337,3.4935634612652433,2.901695083618285,-0.5918683776469584,0.5918683776469584,-16.94168101450789,False
s4_sit,msptdfast,MSPTDfast v2,mid_upslope,none,1.0,25.0,True,False,679,681,0.9920795607314664,0.0,0.03152283807591861,679,0,2,0.9970631424375918,1.0,0.9985294117647059,266.92871993095457,5.371613587008694,7.653712852869656,0.02106054174057919,7.65934279367942,677,724.3264705882353,725.4019368528957,1.0754662646603492,1.0754662646603492,0.1484781115050163,47.66481403611934,53.01319969135977,5.348385655240435,5.348385655240435,11.220825599335281,25.291933202608096,44.21570927112055,18.923776068512456,18.923776068512456,74.82139034971452,4.860088365243005,6.942392909896602,2.0823045446535975,2.0823045446535975,42.84499350969068,25.31055348154773,44.24820688032153,18.937653398773804,18.937653398773804,74.82117454515569,17.89726400238718,31.288207140420607,13.390943138033428,13.390943138033428,74.8211745451557,64.98889855524969,68.13109992485157,3.142201369601878,3.142201369601878,4.834981726810719,0.2753895572975743,0.45923531507536824,0.18384575777779394,0.18384575777779394,66.75843469951839,1.4191767991993267,1.3806570145275043,-0.03851978467182238,0.03851978467182238,-2.7142343852826882,1.2617883725140517,1.2069192970678506,-0.05486907544620112,0.05486907544620112,-4.348516489883099,966.4383586160568,993.3595965640687,26.921237948011935,26.921237948011935,2.785613558071437,276.63397826643387,305.26066807920233,28.62668981276846,28.62668981276846,10.34821896867539,3.4935634612652433,3.2541355649078696,-0.23942789635737372,0.23942789635737372,-6.853400518182129,False
s4_sit,msptdfast,MSPTDfast v2,mid_upslope,none,1.0,25.0,False,False,679,681,0.9920795607314664,0.0,0.03427792400280329,679,0,2,0.9970631424375918,1.0,0.9985294117647059,268.00000000004763,14.40768094535085,17.690762345876223,-0.0029542097489611897,17.703842146913374,677,724.3264705882353,725.4277286135693,1.1012580253340047,1.1012580253340047,0.15203890373351373,47.66481403611934,55.716442347492105,8.051628311372767,8.051628311372767,16.892184463934804,25.291933202608096,53.25449613823217,27.962562935624074,27.962562935624074,110.55921550805212,4.860088365243005,10.487444608567207,5.627356243324202,5.627356243324202,115.78711785506464,25.31055348154773,53.29373980090145,27.98318631935372,27.98318631935372,110.5593614922504,17.89726400238718,37.68436480800882,19.787100805621645,19.787100805621645,110.5593614922504,64.98889855524969,69.19922358480426,4.210325029554568,4.210325029554568,6.478529599905745,0.2753895572975743,0.5445778558747311,0.26918829857715676,0.26918829857715676,97.74818668461101,1.4191767991993267,1.1319476584774653,-0.28722914072186145,0.28722914072186145,-20.239137286059837,1.2617883725140517,1.1149639761070709,-0.14682439640698086,0.14682439640698086,-11.636214091467686,966.4383586160568,956.5506365722632,-9.887722043793588,9.887722043793588,-1.0231094363796611,276.63397826643387,348.2256914748411,71.59171320840721,71.59171320840721,25.87958054070106,3.4935634612652433,2.746927237105861,-0.7466362241593822,0.7466362241593822,-21.37176646245829,False
s4_sit,msptdfast,MSPTDfast v2,mid_upslope,none,1.0,500.0,True,False,680,681,0.9920795607314664,0.0014727540500736377,0.021791618750038287,679,1,2,0.9970631424375918,0.9985294117647059,0.9977957384276267,265.5762091241721,5.1468166821373815,7.42383451052421,0.02285132059244117,7.429296416514631,676,724.3264705882353,725.1905772010916,0.8641066128562898,0.8641066128562898,0.11929794753387062,47.66481403611934,53.14004903812547,5.47523500200613,5.47523500200613,11.48695345345755,25.291933202608096,44.793435493297274,19.501502290689178,19.501502290689178,77.10562152156162,4.860088365243005,7.0901033973412115,2.2300150320982066,2.2300150320982066,45.884248690747945,25.31055348154773,44.82636424807555,19.51581076652782,19.51581076652782,77.10542869303717,17.89726400238718,31.697026135752438,13.79976213336526,13.79976213336526,77.10542869303718,64.98889855524969,68.13976928122216,3.1508707259724673,3.1508707259724673,4.848321476465376,0.2753895572975743,0.4651765990714537,0.1897870417738794,0.1897870417738794,68.91584547950144,1.4191767991993267,1.3680964874411299,-0.05108031175819683,0.05108031175819683,-3.59929163068445,1.2617883725140517,1.1834728088053963,-0.07831556370865544,0.07831556370865544,-6.206711475127601,966.4383586160568,996.0242149955509,29.58585637949409,29.58585637949409,3.0613288592829804,276.63397826643387,307.81328464668496,31.17930638025109,31.17930638025109,11.27096048563544,3.4935634612652433,3.2358064602013847,-0.25775700106385857,0.25775700106385857,-7.37805406776576,True
s4_sit,msptdfast,MSPTDfast v2,mid_upslope,none,1.0,500.0,False,False,680,681,0.9920795607314664,0.0014727540500736377,0.027161336432070103,679,1,2,0.9970631424375918,0.9985294117647059,0.9977957384276267,266.00000000000057,5.153846153847841,7.4651062049306836,0.02366863905329867,7.470596317294237,676,724.3264705882353,725.1917404129794,0.8652698247440185,0.8652698247440185,0.11945853974400814,47.66481403611934,53.18495741599962,5.520143379880281,5.520143379880281,11.58117049548801,25.291933202608096,44.86954667267766,19.57761347006956,19.57761347006956,77.40655217312816,4.860088365243005,7.23781388478582,2.377725519542815,2.377725519542815,48.92350387180519,25.31055348154773,44.9025419895014,19.591988507953673,19.591988507953673,77.40640093958005,17.89726400238718,31.75089193329013,13.853627930902952,13.853627930902952,77.40640093958007,64.98889855524969,68.18475087674602,3.195852321496332,3.195852321496332,4.917535752324543,0.2753895572975743,0.4656597189991138,0.1902701617015395,0.1902701617015395,69.09127694190002,1.4191767991993267,1.328282116483595,-0.09089468271573176,0.09089468271573176,-6.404746946752008,1.2617883725140517,1.1828304369152576,-0.07895793559879416,0.07895793559879416,-6.2576211129188275,966.4383586160568,996.4141018528652,29.9757432368084,29.9757432368084,3.101671510610751,276.63397826643387,309.75094547454773,33.11696720811386,33.11696720811386,11.971402578832162,3.4935634612652433,3.2168234396389943,-0.276740021626249,0.276740021626249,-7.921425349634946,True
s5_sit,msptdfast,MSPTDfast v2,mid_upslope,none,1.0,100.0,True,False,637,638,0.9911163611061667,0.0,0.02179923623385177,637,0,1,0.9984326018808778,1.0,0.9992156862745099,267.50521200942336,3.509940134539909,4.497123597609184,-0.00670493446300115,4.50065824453837,636,774.7158555729984,774.5813453800025,-0.13451019299589007,0.13451019299589007,-0.01736251969393386,49.02100643708726,50.04676108025908,1.0257546431718225,1.0257546431718225,2.092479770867738,26.212124517066584,27.61717999956035,1.4050554824937649,1.4050554824937649,5.360326598398921,5.345911949685535,6.929133858267717,1.583221908582182,1.583221908582182,29.615562760537284,26.232755677027686,27.638936540182396,1.4061808631547095,1.4061808631547095,5.3604008685451126,18.54935942843618,19.54367945234763,0.9943200239114489,0.9943200239114489,5.360400868545119,66.79849855351979,68.02500409932333,1.2265055458035334,1.2265055458035334,1.836127416577847,0.2776912629791252,0.2873014079324699,0.009610144953344668,0.009610144953344668,3.460730038909106,1.5491181222005777,1.5039708607936453,-0.04514726140693237,0.04514726140693237,-2.9143846915172014,1.2379608927180985,1.2197242599870333,-0.01823663273106524,0.01823663273106524,-1.473118645212162,886.7114917235966,928.6211207179989,41.90962899440228,41.90962899440228,4.726410944887838,287.29067184026013,331.89715566758525,44.60648382732512,44.60648382732512,15.526603610759523,3.086461130268189,2.79791828541028,-0.28854284485790904,0.28854284485790904,-9.348662843288002,False
s5_sit,msptdfast,MSPTDfast v2,mid_upslope,none,1.0,100.0,False,False,637,638,0.9911163611061667,0.0,0.02437529733518346,637,0,1,0.9984326018808778,1.0,0.9992156862745099,267.99999999996805,4.874213836478957,6.124494588311214,-0.012578616352170334,6.129302200596726,636,774.7158555729984,774.5754716981132,-0.140383874885174,0.140383874885174,-0.01812069210605516,49.02100643708726,50.224462737369734,1.2034563002824754,1.2034563002824754,2.4549808087415976,26.212124517066584,28.575084130598352,2.3629596135317676,2.3629596135317676,9.014758082631786,5.345911949685535,8.031496062992126,2.685584113306591,2.685584113306591,50.23622047244094,26.232755677027686,28.59760646377287,2.3648507867451833,2.3648507867451833,9.014877490800973,18.54935942843618,20.221561456238042,1.6722020278018626,1.6722020278018626,9.014877490800979,66.79849855351979,68.08877856729748,1.2902800137776893,1.2902800137776893,1.9316003229382481,0.2776912629791252,0.2969881657702449,0.019296902791119674,0.019296902791119674,6.949049308969535,1.5491181222005777,1.18176265700028,-0.3673554652002977,0.3673554652002977,-23.71384466656785,1.2379608927180985,1.209524031335142,-0.028436861382956424,0.028436861382956424,-2.2970726741229868,886.7114917235966,932.5091085144716,45.79761679087494,45.79761679087494,5.164883642350589,287.29067184026013,328.44396330971347,41.153291469453336,41.153291469453336,14.324618062202681,3.086461130268189,2.8391726220741695,-0.24728850819401949,0.24728850819401949,-8.012040254416943,False
s5_sit,msptdfast,MSPTDfast v2,mid_upslope,none,1.0,50.0,True,False,637,638,0.9911163611061667,0.0,0.034071898413071,637,0,1,0.9984326018808778,1.0,0.9992156862745099,267.51915804043426,3.5058613075977214,4.4919638969609945,-0.007283525371097022,4.495493575378743,636,774.7158555729984,774.5807667890944,-0.13508878390405243,0.13508878390405243,-0.01743720396740009,49.02100643708726,50.042547301526696,1.0215408644394373,1.0215408644394373,2.083883907504971,26.212124517066584,27.610532916244278,1.3984083991776934,1.3984083991776934,5.33496778663323,5.345911949685535,6.771653543307086,1.4257415936215514,1.4257415936215514,26.66975451597961,26.232755677027686,27.63228508809492,1.3995294110672347,1.3995294110672347,5.335045346733504,18.54935942843618,19.538976165471837,0.9896167370356572,0.9896167370356572,5.335045346733506,66.79849855351979,68.0201550369903,1.221656483470511,1.221656483470511,1.8288681780649674,0.2776912629791252,0.2872527437617023,0.00956148078257707,0.00956148078257707,3.4432054793513007,1.5491181222005777,1.5033342575096305,-0.045783864690947196,0.045783864690947196,-2.955479252021762,1.2379608927180985,1.219313851767021,-0.018647040951077498,0.018647040951077498,-1.5062705987533724,886.7114917235966,928.3661832174685,41.65469149387184,41.65469149387184,4.6976600486933044,287.29067184026013,331.6746556992896,44.383983859029456,44.383983859029456,15.449155927940438,3.086461130268189,2.799026598098484,-0.28743453216970494,0.28743453216970494,-9.312753993591656,False
s5_sit,msptdfast,MSPTDfast v2,mid_upslope,none,1.0,50.0,False,False,637,638,0.9911163611061667,0.0,0.0337105454776417,637,0,1,0.9984326018808778,1.0,0.9992156862745099,267.9999999999965,7.971698113207739,9.799563589306446,0.003144654088081596,9.807276240675192,636,774.7158555729984,774.5911949685535,-0.12466060444489813,0.12466060444489813,-0.016091138905721267,49.02100643708726,50.580779871686865,1.559773434599606,1.559773434599606,3.1818470242984365,26.212124517066584,30.769654751771416,4.557530234704831,4.557530234704831,17.3871073736791,5.345911949685535,10.078740157480315,4.73282820779478,4.73282820779478,88.53172765169059,26.232755677027686,30.79389534729856,4.561139670270872,4.561139670270872,17.38719228138549,18.54935942843618,21.77457221922369,3.225212790787509,3.225212790787509,17.387192281385502,66.79849855351979,68.13735091362078,1.3388523601009865,1.3388523601009865,2.0043150506268956,0.2776912629791252,0.31956881104502866,0.041877548065903436,0.041877548065903436,15.080614210412332,1.5491181222005777,1.6208666082577232,0.07174848605714557,0.07174848605714557,4.631569731766114,1.2379608927180985,1.1932229291090124,-0.04473796360908611,0.04473796360908611,-3.613843044012343,886.7114917235966,924.3363665854212,37.62487486182454,37.62487486182454,4.243192426511696,287.29067184026013,334.1739463604644,46.88327452020428,46.88327452020428,16.31910782897692,3.086461130268189,2.7660336081029024,-0.3204275221652866,0.3204275221652866,-10.381712538769083,False
s5_sit,msptdfast,MSPTDfast v2,mid_upslope,none,1.0,30.0,True,False,637,638,0.9911163611061667,0.0,0.043210189485547196,637,0,1,0.9984326018808778,1.0,0.9992156862745099,267.59553050185593,3.530952532963811,4.516539856415911,-0.006547138877967861,4.520090038906002,636,774.7158555729984,774.5815031755875,-0.13435239741090754,0.13435239741090754,-0.017342151505539704,49.02100643708726,50.02659859250649,1.0055921554192295,1.0055921554192295,2.051349469354102,26.212124517066584,27.590894669091018,1.3787701520244333,1.3787701520244333,5.260047315610464,5.345911949685535,6.6141732283464565,1.2682612786609218,1.2682612786609218,23.723946271421948,26.232755677027686,27.61263174071079,1.3798760636831027,1.3798760636831027,5.260126235580638,18.54935942843618,19.5250791502635,0.9757197218273213,0.9757197218273213,5.260126235580633,66.79849855351979,68.00067953813029,1.202180984610493,1.202180984610493,1.7997125843289583,0.2776912629791252,0.2871306475594134,0.009439384580288201,0.009439384580288201,3.3992371524478915,1.5491181222005777,1.502586289885874,-0.0465318323147037,0.0465318323147037,-3.0037626987801014,1.2379608927180985,1.220841338320566,-0.017119554397532433,0.017119554397532433,-1.382883296090582,886.7114917235966,928.2468829282534,41.535391204656776,41.535391204656776,4.684205809030393,287.29067184026013,330.64481866188225,43.35414682162212,43.35414682162212,15.090690743251134,3.086461130268189,2.807383725790301,-0.2790774044778881,0.2790774044778881,-9.041986686339332,False
s5_sit,msptdfast,MSPTDfast v2,mid_upslope,none,1.0,30.0,False,False,637,638,0.9911163611061667,0.0,0.04607814851412619,637,0,1,0.9984326018808778,1.0,0.9992156862745099,267.3333333333361,10.917190775679849,13.502102742779268,-0.007337526205427079,13.512728142067752,636,774.7158555729984,774.58071278826,-0.13514278473837749,0.13514278473837749,-0.017444174372605637,49.02100643708726,51.79455632460732,2.773549887520062,2.773549887520062,5.657880343765666,26.212124517066584,35.56812988500959,9.356005367943006,9.356005367943006,35.69342638308984,5.345911949685535,14.330708661417324,8.98479671173179,8.98479671173179,168.0685502547476,26.232755677027686,35.596130641454174,9.363374964426487,9.363374964426487,35.69344783943571,18.54935942843618,25.170265360574497,6.620905932138317,6.620905932138317,35.69344783943571,66.79849855351979,68.78815211505615,1.9896535615363575,1.9896535615363575,2.9785902447226746,0.2776912629791252,0.36590989271632585,0.08821862973720063,0.08821862973720063,31.76860114026427,1.5491181222005777,1.260228222031707,-0.28888990016887073,0.28888990016887073,-18.648668298999194,1.2379608927180985,1.1311863661268686,-0.10677452659122988,0.10677452659122988,-8.62503227842626,886.7114917235966,921.7414197851414,35.02992806154475,35.02992806154475,3.9505440482623393,287.29067184026013,360.438023627209,73.14735178694889,73.14735178694889,25.461095314511436,3.086461130268189,2.557281305976954,-0.5291798242912349,0.5291798242912349,-17.14519645498511,False
s5_sit,msptdfast,MSPTDfast v2,mid_upslope,none,1.0,25.0,True,False,637,638,0.9911163611061667,0.0,0.0330132405050376,637,0,1,0.9984326018808778,1.0,0.9992156862745099,267.6152089918117,3.558174998553282,4.563244916551048,-0.007976972506089487,4.5668296315540315,636,774.7158555729984,774.5800733419594,-0.135782231039002,0.135782231039002,-0.017526713834787103,49.02100643708726,50.03173972178982,1.0107332847025603,1.0107332847025603,2.061837073866932,26.212124517066584,27.654702885838923,1.4425783687723381,1.4425783687723381,5.503477475979036,5.345911949685535,7.244094488188976,1.8981825385034412,1.8981825385034412,35.50717924965261,26.232755677027686,27.67648916331805,1.4437334862903626,1.4437334862903626,5.503552520617023,18.54935942843618,19.57023316681819,1.0208737383820115,1.0208737383820115,5.503552520617027,66.79849855351979,67.9952640481248,1.1967654946050033,1.1967654946050033,1.7916053811391282,0.2776912629791252,0.2878175920159238,0.010126329036798554,0.010126329036798554,3.6466142031842668,1.5491181222005777,1.4932870667579237,-0.05583105544265399,0.05583105544265399,-3.604054115856832,1.2379608927180985,1.219821147597148,-0.0181397451209504,0.0181397451209504,-1.4652922582329975,886.7114917235966,927.6464107589559,40.93491903535926,40.93491903535926,4.61648680742703,287.29067184026013,331.3368659842731,44.046194144012986,44.046194144012986,15.331578245082609,3.086461130268189,2.799707807953331,-0.28675332231485795,0.28675332231485795,-9.290683090181712,False
s5_sit,msptdfast,MSPTDfast v2,mid_upslope,none,1.0,25.0,False,False,637,638,0.9911163611061667,0.0,0.03443531448672995,637,0,1,0.9984326018808778,1.0,0.9992156862745099,268.00000000002944,13.216981132074991,16.296968888984374,0.003144654088081954,16.309795796221557,636,774.7158555729984,774.5911949685535,-0.12466060444489813,0.12466060444489813,-0.016091138905721267,49.02100643708726,52.91790865300314,3.8969022159158797,3.8969022159158797,7.949453712087895,26.212124517066584,39.23681382394688,13.024689306880298,13.024689306880298,49.68955987676614,5.345911949685535,12.755905511811024,7.409993562125489,7.409993562125489,138.61046780917093,26.232755677027686,39.2676948864518,13.034939209424113,13.034939209424113,49.68955366301434,18.54935942843618,27.766453335774386,9.217093907338207,9.217093907338207,49.689553663014344,66.79849855351979,69.49556951034671,2.69707095682692,2.69707095682692,4.037622125093116,0.2776912629791252,0.3995427842582171,0.12185152127909188,0.12185152127909188,43.880214296930106,1.5491181222005777,1.1517570176680252,-0.39736110453255247,0.39736110453255247,-25.650794399596002,1.2379608927180985,1.0997736066779482,-0.1381872860401503,0.1381872860401503,-11.162492034521604,886.7114917235966,940.958573557128,54.24708183353141,54.24708183353141,6.117782654207573,287.29067184026013,405.61007067823925,118.31939883797912,118.31939883797912,41.18455990237207,3.086461130268189,2.3198599876568844,-0.7666011426113046,0.7666011426113046,-24.837544043352104,False
s5_sit,msptdfast,MSPTDfast v2,mid_upslope,none,1.0,500.0,True,False,639,638,0.9911163611061667,0.003134796238244514,0.02544968365185197,637,2,1,0.9984326018808778,0.9968701095461658,0.9976507439310884,267.2614318018899,3.505678574186511,4.4941825954745225,0.0015156203770640632,4.49773084606111,634,774.7158555729984,774.2465737165185,-0.46928185647993814,0.46928185647993814,-0.060574706597794625,49.02100643708726,50.33791145793365,1.3169050208463915,1.3169050208463915,2.6864095957239993,26.212124517066584,28.070616456249663,1.8584919391830788,1.8584919391830788,7.09019956765818,5.345911949685535,7.244094488188976,1.8981825385034412,1.8981825385034412,35.50717924965261,26.232755677027686,28.092731128898524,1.859975451870838,1.859975451870838,7.090278561545248,18.54935942843618,19.864560683294563,1.3152012548583834,1.3152012548583834,7.090278561545251,66.79849855351979,68.36087981260366,1.562381259083864,1.562381259083864,2.3389466723298646,0.2776912629791252,0.29058374815755583,0.012892485178430613,0.012892485178430613,4.642740661019563,1.5491181222005777,1.5062077767895035,-0.04291034541107419,0.04291034541107419,-2.769985374008698,1.2379608927180985,1.203471109635688,-0.03448978308241046,0.03448978308241046,-2.7860155587535416,886.7114917235966,928.4823785844552,41.77088686085858,41.77088686085858,4.710764126859798,287.29067184026013,331.27418903115654,43.98351719089641,43.98351719089641,15.309761681142296,3.086461130268189,2.8027610038074258,-0.28370012646076326,0.28370012646076326,-9.191760870680785,True
s5_sit,msptdfast,MSPTDfast v2,mid_upslope,none,1.0,500.0,False,False,639,638,0.9911163611061667,0.003134796238244514,0.022254510590993575,637,2,1,0.9984326018808778,0.9968701095461658,0.9976507439310884,267.9999999999635,3.48264984227362,4.55876456782471,-1.273149129059107e-14,4.562364066662504,634,774.7158555729984,774.2452830188679,-0.4705725541305128,0.4705725541305128,-0.060741309313008196,49.02100643708726,50.336094590858785,1.3150881537715264,1.3150881537715264,2.6827032926369814,26.212124517066584,28.0902931086363,1.8781685915697146,1.8781685915697146,7.165266555737779,5.345911949685535,7.4015748031496065,2.0556628534640717,2.0556628534640717,38.452987494210284,26.232755677027686,28.11242629838788,1.8796706213601944,1.8796706213601944,7.16535709973559,18.54935942843618,19.878487271197105,1.3291278427609257,1.3291278427609257,7.165357099735594,66.79849855351979,68.35415555128029,1.5556569977604937,1.5556569977604937,2.3288801866019218,0.2776912629791252,0.2908160756412823,0.013124812662157093,0.013124812662157093,4.72640461257282,1.5491181222005777,1.441516339919883,-0.10760178228069472,0.10760178228069472,-6.946002421548238,1.2379608927180985,1.202437221228388,-0.03552367148971047,0.03552367148971047,-2.869530992349346,886.7114917235966,928.2524345723442,41.54094284874759,41.54094284874759,4.684831902651897,287.29067184026013,330.97786300799106,43.68719116773093,43.68719116773093,15.206616660363395,3.086461130268189,2.804575587431153,-0.28188554283703615,0.28188554283703615,-9.132969149446005,True
s6_sit,msptdfast,MSPTDfast v2,mid_upslope,none,1.0,100.0,True,False,642,643,0.9819560564644773,0.0,0.024710543402471526,642,0,1,0.9984447900466563,1.0,0.9992217898832686,255.53519065637974,5.489471039510473,7.180552179467543,0.0027886024861068824,7.186159254330854,641,775.2523364485982,775.3257215198028,0.07338507120459781,0.07338507120459781,0.009465959372760109,51.22403640488481,54.4810083564969,3.256971951612094,3.256971951612094,6.358288374364625,35.84713601790884,39.075121370142675,3.227985352233837,3.227985352233837,9.004862621720104,15.912636505460217,18.125,2.212363494539783,2.212363494539783,13.903186274509816,35.874867571113896,39.105546573083636,3.2306790019697402,3.2306790019697402,9.005410251523974,25.367362133704006,27.651797163833795,2.2844350301297887,2.2844350301297887,9.005410251523964,67.85499797063919,71.91480137420643,4.059803403567244,4.059803403567244,5.983057291260871,0.3738466272547889,0.3845077318638277,0.010661104609038796,0.010661104609038796,2.8517321895679157,1.3101181359021097,1.374603481302107,0.0644853453999974,0.0644853453999974,4.922101574877798,1.1426386974928542,1.1105957390299164,-0.03204295846293781,0.03204295846293781,-2.804294877571149,1408.848534609433,1541.1280332987599,132.27949868932683,132.27949868932683,9.389192339685962,565.6118790702247,745.5065692118405,179.8946901416158,179.8946901416158,31.80532389760516,2.4908397202077053,2.0672226066740915,-0.42361711353361375,0.42361711353361375,-17.00700009305654,False
s6_sit,msptdfast,MSPTDfast v2,mid_upslope,none,1.0,100.0,False,False,642,643,0.9819560564644773,0.0,0.02209169064805207,642,0,1,0.9984447900466563,1.0,0.9992217898832686,255.9999999999818,6.383775351016291,8.359325040494056,0.012480499219984406,8.365843890115656,641,775.2523364485982,775.3354134165367,0.08307696793849573,0.08307696793849573,0.010716119646806637,51.22403640488481,54.683076765626545,3.4590403607417386,3.4590403607417386,6.752768043113211,35.84713601790884,39.739385375216784,3.8922493573079464,3.8922493573079464,10.857908858781412,15.912636505460217,21.40625,5.493613494539783,5.493613494539783,34.523590686274524,35.874867571113896,39.77031756515367,3.8954499940397724,3.8954499940397724,10.858437278738144,25.367362133704006,28.121861240262625,2.754499106558619,2.754499106558619,10.858437278738142,67.85499797063919,72.03914692369855,4.184148953059363,4.184148953059363,6.166309156578034,0.3738466272547889,0.39036915956331847,0.01652253230852957,0.01652253230852957,4.419601811003878,1.3101181359021097,1.1921023872268075,-0.11801574867530218,0.11801574867530218,-9.00802343248534,1.1426386974928542,1.1072401974897785,-0.03539850000307565,0.03539850000307565,-3.097960893565573,1408.848534609433,1540.2250277870874,131.3764931776543,131.3764931776543,9.325097052684592,565.6118790702247,746.6128631145948,181.00098404437006,181.00098404437006,32.00091630711623,2.4908397202077053,2.0629500292317946,-0.4278896909759107,0.4278896909759107,-17.178531701759997,False
s6_sit,msptdfast,MSPTDfast v2,mid_upslope,none,1.0,50.0,True,False,642,643,0.9819560564644773,0.0,0.0318325584563207,642,0,1,0.9984447900466563,1.0,0.9992217898832686,255.43272369860946,5.477505055344542,7.168333437663638,0.002341932710468691,7.173931129407738,641,775.2523364485982,775.3252748500271,0.07293840142892805,0.07293840142892805,0.009408343322518204,51.22403640488481,54.47723772293891,3.253201318054103,3.253201318054103,6.350927311428882,35.84713601790884,39.09485488586097,3.2477188679521305,3.2477188679521305,9.059911693725283,15.912636505460217,18.28125,2.368613494539783,2.368613494539783,14.88511029411766,35.874867571113896,39.12529349426743,3.2504259231535357,3.2504259231535357,9.060454137455125,25.367362133704006,27.665760345710414,2.2983982120064077,2.2983982120064077,9.060454137455118,67.85499797063919,71.90371731932163,4.0487193486824395,4.0487193486824395,5.966722378260652,0.3738466272547889,0.3847611970163913,0.010914569761602377,0.010914569761602377,2.919531424357009,1.3101181359021097,1.3672336460387684,0.05711551013665872,0.05711551013665872,4.359569459538137,1.1426386974928542,1.1104648482301678,-0.032173849262686405,0.032173849262686405,-2.8157500120800534,1408.848534609433,1540.7168798310586,131.86834522162553,131.86834522162553,9.360008686681327,565.6118790702247,744.542770357261,178.93089128703627,178.93089128703627,31.63492456720852,2.4908397202077053,2.069346370916693,-0.42149334929101245,0.42149334929101245,-16.921737110241082,False
s6_sit,msptdfast,MSPTDfast v2,mid_upslope,none,1.0,50.0,False,False,642,643,0.9819560564644773,0.0,0.03776245881875069,642,0,1,0.9984447900466563,1.0,0.9992217898832686,255.99999999999602,8.970358814354118,11.21982866991392,-0.0031201248049767694,11.228590305537782,641,775.2523364485982,775.3198127925117,0.0674763439135404,0.0674763439135404,0.0087037911066024,51.22403640488481,55.48028138415383,4.25624497926902,4.25624497926902,8.309077686941393,35.84713601790884,41.78067735209602,5.933541334187183,5.933541334187183,16.552344185105472,15.912636505460217,21.5625,5.649863494539783,5.649863494539783,35.50551470588236,35.874867571113896,41.81325154415505,5.938383973041155,5.938383973041155,16.553047788314863,25.367362133704006,29.56643371033092,4.199071576626913,4.199071576626913,16.553047788314867,67.85499797063919,72.67702004473202,4.822022074092828,4.822022074092828,7.106362417370219,0.3738466272547889,0.4068195654160429,0.03297293816125402,0.03297293816125402,8.81991056155279,1.3101181359021097,1.7434524923470205,0.4333343564449108,0.4333343564449108,33.07597571317714,1.1426386974928542,1.0891390562631564,-0.05349964122969775,0.05349964122969775,-4.682113545347725,1408.848534609433,1565.1801229508078,156.33158834137475,156.33158834137475,11.096408485438333,565.6118790702247,778.5758814499349,212.9640023797101,212.9640023797101,37.65196776450112,2.4908397202077053,2.010311596136252,-0.4805281240714532,0.4805281240714532,-19.291812322287164,False
s6_sit,msptdfast,MSPTDfast v2,mid_upslope,none,1.0,30.0,True,False,642,643,0.9819560564644773,0.0,0.046609393912600744,642,0,1,0.9984447900466563,1.0,0.9992217898832686,255.3615590874597,5.467942812676837,7.170163467048544,0.0022028195617923058,7.175762632165098,641,775.2523364485982,775.3251357368785,0.0727992882802937,0.0727992882802937,0.009390399081386133,51.22403640488481,54.46503235297198,3.240995948087175,3.240995948087175,6.327099884260797,35.84713601790884,39.04861666224675,3.201480644337913,3.201480644337913,8.930924475356939,15.912636505460217,17.96875,2.056113494539783,2.056113494539783,12.921262254901974,35.874867571113896,39.07902028967724,3.2041527185633427,3.2041527185633427,8.931469118908458,25.367362133704006,27.633040248957457,2.2656781152534506,2.2656781152534506,8.931469118908456,67.85499797063919,71.89780653830871,4.042808567669525,4.042808567669525,5.958011478268476,0.3738466272547889,0.3843377368436681,0.010491109588879222,0.010491109588879222,2.80626032817709,1.3101181359021097,1.3695906760485241,0.059472540146414454,0.059472540146414454,4.539479190207788,1.1426386974928542,1.1111431127241551,-0.03149558476869907,0.03149558476869907,-2.7563905229015786,1408.848534609433,1540.8982838863194,132.04974927688636,132.04974927688636,9.372884737640995,565.6118790702247,744.914484743325,179.3026056731003,179.3026056731003,31.700643552226136,2.4908397202077053,2.068557284689217,-0.42228243551848843,0.42228243551848843,-16.953416636670436,False
s6_sit,msptdfast,MSPTDfast v2,mid_upslope,none,1.0,30.0,False,False,642,643,0.9819560564644773,0.0,0.04379612588283832,642,0,1,0.9984447900466563,1.0,0.9992217898832686,256.00000000000057,12.872594903795514,15.800739640965958,-0.023920956838238118,15.813061029287244,641,775.2523364485982,775.2990119604783,0.04667551188015295,0.04667551188015295,0.006020686386315418,51.22403640488481,56.288735434982584,5.064699030097778,5.064699030097778,9.887348568288148,35.84713601790884,45.90902840279695,10.061892384888111,10.061892384888111,28.06888779025833,15.912636505460217,25.624999999999996,9.71236349453978,9.71236349453978,61.03553921568626,35.874867571113896,45.94481864838364,10.069951077269742,10.069951077269742,28.06965365741997,25.367362133704006,32.48789282665822,7.120530692954212,7.120530692954212,28.06965365741996,67.85499797063919,72.67310570921335,4.818107738574156,4.818107738574156,7.100593740580389,0.3738466272547889,0.4470414812964223,0.0731948540416334,0.0731948540416334,19.578845629587203,1.3101181359021097,1.3900961652175052,0.07997802931539555,0.07997802931539555,6.104642560369182,1.1426386974928542,1.0570934830365082,-0.085545214456346,0.085545214456346,-7.486637258483097,1408.848534609433,1543.0426950493072,134.19416043987417,134.19416043987417,9.525094936985264,565.6118790702247,791.4131225114825,225.80124344125772,225.80124344125772,39.92158789388207,2.4908397202077053,1.9497309953019126,-0.5411087249057926,0.5411087249057926,-21.723947972881646,False
s6_sit,msptdfast,MSPTDfast v2,mid_upslope,none,1.0,25.0,True,False,642,643,0.9819560564644773,0.0,0.03494427299203563,642,0,1,0.9984447900466563,1.0,0.9992217898832686,255.55563289393578,5.6503130940973625,7.442877647285844,-0.0035898155245425935,7.44868925944655,641,775.2523364485982,775.3193431017921,0.06700665319397103,0.06700665319397103,0.008643205578834627,51.22403640488481,54.50811096916762,3.284074564282811,3.284074564282811,6.4111983255767715,35.84713601790884,39.1966357559122,3.3494997380033595,3.3494997380033595,9.343841963636889,15.912636505460217,18.90625,2.993613494539783,2.993613494539783,18.812806372549034,35.874867571113896,39.22716457999686,3.352297008882964,3.352297008882964,9.344416400249521,25.367362133704006,27.73779408123653,2.3704319475325235,2.3704319475325235,9.34441640024952,67.85499797063919,71.92275788900966,4.06775991837047,4.06775991837047,5.994783052135064,0.3738466272547889,0.3856608797460348,0.011814252491245902,0.011814252491245902,3.1601869937946763,1.3101181359021097,1.40454304270829,0.09442490680618021,0.09442490680618021,7.207358193019894,1.1426386974928542,1.1070146582072298,-0.03562403928562441,0.03562403928562441,-3.117699353591794,1408.848534609433,1540.2522322163222,131.40369760688918,131.40369760688918,9.327028021739574,565.6118790702247,745.0392252776105,179.42734620738577,179.42734620738577,31.72269763894202,2.4908397202077053,2.067343812189762,-0.42349590801794346,0.42349590801794346,-17.002134042676545,False
s6_sit,msptdfast,MSPTDfast v2,mid_upslope,none,1.0,25.0,False,False,642,643,0.9819560564644773,0.0,0.03171623874797578,642,0,1,0.9984447900466563,1.0,0.9992217898832686,256.00000000003354,14.15600624025066,17.577641449842073,0.02808112324494505,17.591346174140778,641,775.2523364485982,775.3510140405616,0.09867759196345105,0.09867759196345105,0.012728448187010875,51.22403640488481,56.73603933238916,5.512002927504355,5.512002927504355,10.760579045228699,35.84713601790884,48.52834223420468,12.681206216295841,12.681206216295841,35.37578625517098,15.912636505460217,18.75,2.837363494539783,2.837363494539783,17.830882352941188,35.874867571113896,48.56613837394543,12.691270802831532,12.691270802831532,35.37649519590261,25.367362133704006,34.34144578026102,8.974083646557013,8.974083646557013,35.3764951959026,67.85499797063919,72.5163527762822,4.661354805643015,4.661354805643015,6.869582116353433,0.3738466272547889,0.4735682982596584,0.0997216710048695,0.0997216710048695,26.6744872722647,1.3101181359021097,1.2642157363424862,-0.0459023995596235,0.0459023995596235,-3.503684003886903,1.1426386974928542,1.083232296858019,-0.059406400634835155,0.059406400634835155,-5.199053801099422,1408.848534609433,1538.029054806737,129.18052019730385,129.18052019730385,9.169226998068734,565.6118790702247,774.1842312278449,208.57235215762012,208.57235215762012,36.87552540453705,2.4908397202077053,1.986644771061076,-0.5041949491466293,0.5041949491466293,-20.241966797630226,False
s6_sit,msptdfast,MSPTDfast v2,mid_upslope,none,1.0,500.0,True,False,642,643,0.9819560564644773,0.0,0.024787689077050253,642,0,1,0.9984447900466563,1.0,0.9992217898832686,255.1101349244701,5.47132545027305,7.140112017326141,0.002464653650952488,7.1456876268391625,641,775.2523364485982,775.3253975709677,0.07306112236949502,0.07306112236949502,0.00942417312847908,51.22403640488481,54.466527185589776,3.242490780704969,3.242490780704969,6.33001810922452,35.84713601790884,39.0872969940179,3.2401609761090597,3.2401609761090597,9.03882802377939,15.912636505460217,18.28125,2.368613494539783,2.368613494539783,14.88511029411766,35.874867571113896,39.11773142620529,3.242863855091393,3.242863855091393,9.039375124279251,25.367362133704006,27.66041315610388,2.2930510223998724,2.2930510223998724,9.039375124279244,67.85499797063919,71.8895452159131,4.034547245273913,4.034547245273913,5.945836513059302,0.3738466272547889,0.38476266713092394,0.010916039876135042,0.010916039876135042,2.9199246643718944,1.3101181359021097,1.3637674380622824,0.05364930216017272,0.05364930216017272,4.094997289937624,1.1426386974928542,1.1106548187257412,-0.03198387876711295,0.03198387876711295,-2.799124415906015,1408.848534609433,1540.5721434705745,131.72360886114143,131.72360886114143,9.34973530690142,565.6118790702247,743.9712252270024,178.35934615677763,178.35934615677763,31.53387557028891,2.4908397202077053,2.0707415706844188,-0.4200981495232865,0.4200981495232865,-16.86572388079051,True
s6_sit,msptdfast,MSPTDfast v2,mid_upslope,none,1.0,500.0,False,False,642,643,0.9819560564644773,0.0,0.022080303965688074,642,0,1,0.9984447900466563,1.0,0.9992217898832686,255.99999999996302,5.494539781594168,7.226662368339508,0.00312012480506669,7.232305320547867,641,775.2523364485982,775.3260530421217,0.0737165935234998,0.0737165935234998,0.009508722522681163,51.22403640488481,54.49651443719508,3.272478032310275,3.272478032310275,6.38855947712509,35.84713601790884,39.140771581560294,3.2936355636514563,3.2936355636514563,9.18800197038333,15.912636505460217,18.59375,2.681113494539783,2.681113494539783,16.848958333333346,35.874867571113896,39.17125834637001,3.296390775256114,3.296390775256114,9.188579633699712,25.367362133704006,27.698262404328386,2.3309002706243795,2.3309002706243795,9.188579633699714,67.85499797063919,71.92041734714692,4.065419376507734,4.065419376507734,5.99133372351855,0.3738466272547889,0.38512377188571995,0.011277144630931046,0.011277144630931046,3.0165163488944082,1.3101181359021097,1.3688200733177192,0.05870193741560947,0.05870193741560947,4.480659858600386,1.1426386974928542,1.109438196567236,-0.033200500925618215,0.033200500925618215,-2.90559920633406,1408.848534609433,1539.483286486429,130.634751876996,130.634751876996,9.272448291484444,565.6118790702247,745.916480410695,180.3046013404703,180.3046013404703,31.87779606695357,2.4908397202077053,2.0638815831482944,-0.4269581370594109,0.4269581370594109,-17.14113251027681,True
s7_sit,msptdfast,MSPTDfast v2,mid_upslope,none,1.0,100.0,True,False,543,544,0.9881188588412922,0.0,0.023258495846662397,543,0,1,0.9981617647058824,1.0,0.9990800367985281,257.5972485304309,4.638482770450324,6.029418282906084,-0.001252404867949739,6.03498805531769,542,929.9779005524862,929.8695963036192,-0.10830424886694345,0.10830424886694345,-0.011645894897352023,51.70095202801028,52.32145472487973,0.6205026968694511,0.6205026968694511,1.2001765393667767,50.56879425129114,51.44540640257966,0.8766121512885192,0.8766121512885192,1.7335041585772777,33.025830258302584,34.195933456561924,1.1701031982593406,1.1701031982593406,3.5429940416567742,50.615449655065476,51.492981546970796,0.8775318919053205,0.8775318919053205,1.7337233945080623,35.7905276839031,36.41103643537681,0.6205087514737073,0.6205087514737073,1.7337233945080475,63.757470223598155,64.41510439917754,0.657634175579382,0.657634175579382,1.0314621538041764,0.561354262620291,0.5652561891344495,0.003901926514158549,0.003901926514158549,0.6950916335693481,1.8267763094653138,1.881768374600193,0.0549920651348792,0.0549920651348792,3.010333824121851,0.8630132618839237,0.864508905145508,0.0014956432615843562,0.0014956432615843562,0.1733047830944598,657.0905559531319,677.4671846831363,20.376628730004427,20.376628730004427,3.101038136280538,815.9542415345144,828.3259284320401,12.371686897525706,12.371686897525706,1.516223124750114,0.8053031928817266,0.8178751400013903,0.012571947119663696,0.012571947119663696,1.5611445764514824,False
s7_sit,msptdfast,MSPTDfast v2,mid_upslope,none,1.0,100.0,False,False,543,544,0.9881188588412922,0.0,0.0218699200812546,543,0,1,0.9981617647058824,1.0,0.9990800367985281,257.9999999999817,5.579335793359486,7.19470900303732,-5.18093153454597e-14,7.201355386905487,542,929.9779005524862,929.8708487084871,-0.10705184399910195,0.10705184399910195,-0.011511224507109688,51.70095202801028,52.49224851515405,0.7912964871437751,0.7912964871437751,1.5305259499188149,50.56879425129114,51.888548271988334,1.3197540206971965,1.3197540206971965,2.609819040056507,33.025830258302584,36.59889094269871,3.5730606843961255,3.5730606843961255,10.818988217556983,50.615449655065476,51.93651827549859,1.3210686204331168,1.3210686204331168,2.6100106379296135,35.7905276839031,36.72466426382411,0.9341365799210095,0.9341365799210095,2.6100106379296,63.757470223598155,64.51489241301411,0.757422189415955,0.757422189415955,1.187974031528646,0.561354262620291,0.569243207114392,0.007888944494101047,0.007888944494101047,1.4053415141584584,1.8267763094653138,1.5722000805565581,-0.25457622890875564,0.25457622890875564,-13.935818391649086,0.8630132618839237,0.8621404551939694,-0.0008728066899542641,0.0008728066899542641,-0.10113479462053246,657.0905559531319,678.8493505474603,21.75879459432838,21.75879459432838,3.3113844655348177,815.9542415345144,829.6997524576774,13.74551092316301,13.74551092316301,1.6845933538273767,0.8053031928817266,0.8181867579646989,0.012883565082972281,0.012883565082972281,1.5998403082035795,False
s7_sit,msptdfast,MSPTDfast v2,mid_upslope,none,1.0,50.0,True,False,545,544,0.9881188588412922,0.001838235294117647,0.031506675730730675,543,2,1,0.9981617647058824,0.9963302752293578,0.9972451790633609,257.82686431778734,4.678033427553943,6.277664402766999,-0.020248295877068518,6.283441681192656,541,929.9779005524862,929.0676152318534,-0.9102853206327381,0.9102853206327381,-0.09788246796960992,51.70095202801028,53.75032409214393,2.0493720641336495,2.0493720641336495,3.9638961832334365,50.56879425129114,54.023986401949536,3.455192150658398,3.455192150658398,6.832656783328741,33.025830258302584,35.05535055350554,2.029520295202957,2.029520295202957,6.145251396648059,50.615449655065476,54.07328334236612,3.457833687300642,3.457833687300642,6.831577533865869,35.7905276839031,38.23558533240867,2.4450576485055677,2.4450576485055677,6.831577533865866,63.757470223598155,65.69805700558511,1.9405867819869584,1.9405867819869584,3.043701036413928,0.561354262620291,0.5819895910948811,0.020635328474590153,0.020635328474590153,3.675990341334278,1.8267763094653138,1.8229578400839164,-0.0038184693813974047,0.0038184693813974047,-0.20902774803966268,0.8630132618839237,0.8543944565496432,-0.0086188053342805,0.0086188053342805,-0.9986874727122952,657.0905559531319,678.8225939893741,21.732038036242216,21.732038036242216,3.3073124913078633,815.9542415345144,826.2746886587627,10.32044712424829,10.32044712424829,1.2648316043849797,0.8053031928817266,0.8215459136128958,0.01624272073116917,0.01624272073116917,2.016969617746779,False
s7_sit,msptdfast,MSPTDfast v2,mid_upslope,none,1.0,50.0,False,False,545,544,0.9881188588412922,0.001838235294117647,0.03682451799611493,543,2,1,0.9981617647058824,0.9963302752293578,0.9972451790633609,257.9999999999908,8.192236598891565,10.168270026998806,-0.036968576709831134,10.177613471666302,541,929.9779005524862,929.0607734806629,-0.9171270718233018,0.9171270718233018,-0.09861815762271879,51.70095202801028,54.10494439750133,2.40399236949105,2.40399236949105,4.649802905348101,50.56879425129114,55.281900843635675,4.713106592344538,4.713106592344538,9.320187799858806,33.025830258302584,34.50184501845018,1.4760147601475992,1.4760147601475992,4.469273743016753,50.615449655065476,55.33236556983023,4.716915914764755,4.716915914764755,9.31912281113697,35.7905276839031,39.12589091352,3.3353632296169025,3.3353632296169025,9.31912281113696,63.757470223598155,65.75602388174602,1.9985536581478627,1.9985536581478627,3.134618815864106,0.561354262620291,0.595016070069611,0.033661807449320014,0.033661807449320014,5.99653546624788,1.8267763094653138,1.9296138183623275,0.10283750889701371,0.10283750889701371,5.629452733986549,0.8630132618839237,0.8511940627066056,-0.011819199177318107,0.011819199177318107,-1.3695269469576012,657.0905559531319,682.4391796067121,25.348623653580148,25.348623653580148,3.8577062817180683,815.9542415345144,833.1498540582213,17.195612523706927,17.195612523706927,2.1074236333851526,0.8053031928817266,0.8191073625982086,0.013804169716482018,0.013804169716482018,1.714158075927238,False
s7_sit,msptdfast,MSPTDfast v2,mid_upslope,none,1.0,30.0,True,False,543,544,0.9881188588412922,0.0,0.044309897788986786,543,0,1,0.9981617647058824,1.0,0.9990800367985281,258.008694355477,4.699595130705933,6.26586449056825,-0.01560746175377162,6.271633363200785,542,929.9779005524862,929.8552412467333,-0.1226593057529044,0.1226593057529044,-0.013189486081339602,51.70095202801028,52.323270680684715,0.6223186526744371,0.6223186526744371,1.2036889617376494,50.56879425129114,51.465975128563784,0.8971808772726462,0.8971808772726462,1.7741788993708092,33.025830258302584,33.826247689463955,0.800417431161371,0.800417431161371,2.423610322287503,50.615449655065476,51.51354382056006,0.8980941654945838,0.8980941654945838,1.7743478949904075,35.7905276839031,36.425576158468395,0.6350484745652949,0.6350484745652949,1.7743478949904108,63.757470223598155,64.40983396168647,0.6523637380883187,0.6523637380883187,1.0231957695317455,0.561354262620291,0.5655281797518027,0.004173917131511717,0.004173917131511717,0.7435442125314405,1.8267763094653138,1.9033169601262823,0.07654065066096849,0.07654065066096849,4.189930111551067,0.8630132618839237,0.8663752599535652,0.0033619980696415475,0.0033619980696415475,0.38956505283620313,657.0905559531319,678.1093309105652,21.018774957433266,21.018774957433266,3.198763818321027,815.9542415345144,825.3774088768847,9.423167342370334,9.423167342370334,1.154864680236084,0.8053031928817266,0.8215748621388711,0.016271669257144517,0.016271669257144517,2.020564354018935,False
s7_sit,msptdfast,MSPTDfast v2,mid_upslope,none,1.0,30.0,False,False,543,544,0.9881188588412922,0.0,0.04388203441876878,543,0,1,0.9981617647058824,1.0,0.9990800367985281,257.99999999999534,11.809348093481683,14.61943081236735,0.01845018450178356,14.632924409992755,542,929.9779005524862,929.8892988929889,-0.08860165949727161,0.08860165949727161,-0.009527286556447703,51.70095202801028,53.472823250042765,1.7718712220324875,1.7718712220324875,3.4271539546748233,50.56879425129114,55.596616577832556,5.027822326541418,5.027822326541418,9.942539467238822,33.025830258302584,36.59889094269871,3.5730606843961255,3.5730606843961255,10.818988217556983,50.615449655065476,55.64803694272251,5.032587287657037,5.032587287657037,9.942788855879279,35.7905276839031,39.349104281918606,3.558576598015506,3.558576598015506,9.94278885587928,63.757470223598155,64.57812048109888,0.8206502575007235,0.8206502575007235,1.2871436940999916,0.561354262620291,0.6093256351961427,0.04797137257585171,0.04797137257585171,8.545650362024652,1.8267763094653138,1.5641675580207466,-0.2626087514445672,0.2626087514445672,-14.375528633904343,0.8630132618839237,0.8388949855204467,-0.024118276363476965,0.024118276363476965,-2.794658834190766,657.0905559531319,673.5962585617689,16.505702608636966,16.505702608636966,2.5119372754787035,815.9542415345144,826.6177070759503,10.663465541435926,10.663465541435926,1.3068705325168493,0.8053031928817266,0.8148824454106187,0.009579252528892135,0.009579252528892135,1.1895212403931226,False
s7_sit,msptdfast,MSPTDfast v2,mid_upslope,none,1.0,25.0,True,False,544,544,0.9881188588412922,0.0,0.03152363185004946,543,1,1,0.9981617647058824,0.9981617647058824,0.9981617647058824,258.5725142977211,4.646645687483519,6.011746083076051,-0.020176573699624032,6.017265770718429,542,929.9779005524862,929.557068150983,-0.42083240150316215,0.42083240150316215,-0.045251871173836694,51.70095202801028,52.65039533197362,0.9494433039633421,0.9494433039633421,1.8364135798678476,50.56879425129114,51.8163879166225,1.2475936653313653,1.2475936653313653,2.467121638557778,33.025830258302584,35.42435424354243,2.398523985239848,2.398523985239848,7.262569832402221,50.615449655065476,51.86363956383375,1.2481899087682748,1.2481899087682748,2.4660255263451147,35.7905276839031,36.67313123260176,0.8826035486986612,0.8826035486986612,2.4660255263451027,63.757470223598155,64.80130942212965,1.0438391985314937,1.0438391985314937,1.637202973817402,0.561354262620291,0.5659319473578089,0.004577684737517962,0.004577684737517962,0.8154716268030516,1.8267763094653138,1.8791296678513025,0.05235335838598876,0.05235335838598876,2.8658877452440943,0.8630132618839237,0.8526474788998356,-0.010365782984088079,0.010365782984088079,-1.2011151441010288,657.0905559531319,677.7134903658701,20.622934412738232,20.622934412738232,3.1385224191548415,815.9542415345144,828.9492922511732,12.995050716658852,12.995050716658852,1.5926200337190317,0.8053031928817266,0.8175572338392463,0.012254040957519696,0.012254040957519696,1.5216679960834856,False
s7_sit,msptdfast,MSPTDfast v2,mid_upslope,none,1.0,25.0,False,False,544,544,0.9881188588412922,0.0,0.03153406638614306,543,1,1,0.9981617647058824,0.9981617647058824,0.9981617647058824,260.00000000000034,13.856088560886231,17.298977210983647,0.01845018450179405,17.3149479457082,542,929.9779005524862,929.5764272559853,-0.4014732965008534,0.4014732965008534,-0.043170197513547795,51.70095202801028,55.64453899578329,3.9435869677730153,3.9435869677730153,7.627687330857039,50.56879425129114,60.15968909395985,9.59089484266871,9.59089484266871,18.9660342601976,33.025830258302584,30.44280442804428,-2.583025830258304,2.583025830258304,-7.821229050279334,50.615449655065476,60.21453892402594,9.599089268960462,9.599089268960462,18.964741663615364,35.7905276839031,42.57810879920006,6.787581115296959,6.787581115296959,18.964741663615357,63.757470223598155,66.17955946657531,2.422089242977158,2.422089242977158,3.7989105190072068,0.561354262620291,0.6433725026638261,0.08201824004353508,0.08201824004353508,14.610780661162188,1.8267763094653138,1.4536532453151871,-0.37312306415012664,0.37312306415012664,-20.42521912599893,0.8630132618839237,0.7870783192259103,-0.07593494265801337,0.07593494265801337,-8.798815268753856,657.0905559531319,683.4393112103918,26.34875525725988,26.34875525725988,4.009912335300593,815.9542415345144,928.4543354560299,112.50009392151549,112.50009392151549,13.787549374085435,0.8053031928817266,0.7361043888870488,-0.06919880399467782,0.06919880399467782,-8.592888319125406,False
s7_sit,msptdfast,MSPTDfast v2,mid_upslope,none,1.0,500.0,True,False,546,544,0.9881188588412922,0.0,0.022130949462944766,543,3,1,0.9981617647058824,0.9945054945054945,0.9963302752293578,257.52264756383204,4.651961972610319,6.094134211843265,-0.0493570308551157,6.099595213133393,539,929.9779005524862,924.7537294453157,-5.224171107170491,5.224171107170491,-0.5617521775589386,51.70095202801028,72.40769762897318,20.706745600962904,20.706745600962904,40.05099478583007,50.56879425129114,73.63512118100492,23.06632692971378,23.06632692971378,45.61375700415251,33.025830258302584,35.47794117647059,2.452110918168003,2.452110918168003,7.42482747288859,50.615449655065476,73.70287898644062,23.087429331375148,23.087429331375148,45.61340359260171,35.7905276839031,52.115805524283665,16.325277840380565,16.325277840380565,45.613403592601706,63.757470223598155,88.1458573411857,24.38838711758755,24.38838711758755,38.251811171392475,0.561354262620291,0.5912450918998869,0.029890829279595965,0.029890829279595965,5.324771052787854,1.8267763094653138,1.5894074110753327,-0.2373688983899811,0.2373688983899811,-12.993867785566888,0.8630132618839237,0.8506467246525553,-0.01236653723136838,0.01236653723136838,-1.4329486900783794,657.0905559531319,649.6252981691904,-7.465257783941524,7.465257783941524,-1.136107910288395,815.9542415345144,1078.211923772706,262.2576822381917,262.2576822381917,32.14122421190923,0.8053031928817266,0.6025024244734057,-0.20280076840832084,0.20280076840832084,-25.183157126524126,True
s7_sit,msptdfast,MSPTDfast v2,mid_upslope,none,1.0,500.0,False,False,546,544,0.9881188588412922,0.0,0.021796676758581945,543,3,1,0.9981617647058824,0.9945054945054945,0.9963302752293578,257.99999999998624,4.708719851577646,6.2067053333156,-0.04823747680876554,6.212283345103108,539,929.9779005524862,924.7559633027523,-5.221937249733855,5.221937249733855,-0.5615119721266042,51.70095202801028,72.4006487509436,20.699696722933325,20.699696722933325,40.037360843411065,50.56879425129114,73.57264317346099,23.00384892216985,23.00384892216985,45.49020648555904,33.025830258302584,35.845588235294116,2.819757976991532,2.819757976991532,8.538038120276035,50.615449655065476,73.64034292167821,23.024893266612736,23.024893266612736,45.48985225563131,35.7905276839031,52.07158584882144,16.281058164918342,16.281058164918342,45.48985225563131,63.757470223598155,88.16040963098936,24.40293940739121,24.40293940739121,38.27463561808496,0.561354262620291,0.5906459154032526,0.02929165278296164,0.02929165278296164,5.218033376327096,1.8267763094653138,1.5856153465647524,-0.24116096290056133,0.24116096290056133,-13.201450098241512,0.8630132618839237,0.8504575001700089,-0.012555761713914815,0.012555761713914815,-1.4548747126441701,657.0905559531319,649.2731949547974,-7.817360998334493,7.817360998334493,-1.1896930989968573,815.9542415345144,1079.3392600151833,263.3850184806689,263.3850184806689,32.27938591082474,0.8053031928817266,0.6015469083795432,-0.20375628450218342,0.20375628450218342,-25.301810088825608,True
s8_sit,msptdfast,MSPTDfast v2,mid_upslope,none,1.0,100.0,True,False,697,698,0.9805123176859909,0.0,0.0273650324791736,697,0,1,0.998567335243553,1.0,0.9992831541218639,237.37716352499348,3.3000415969478563,4.7545417741171345,0.019526860925918165,4.757920950915248,696,700.8493543758967,700.8040096195466,-0.04534475635011859,0.04534475635011859,-0.006469971908656161,51.82554154129068,51.855057299956776,0.02951575866609346,0.02951575866609346,0.056952147123397696,23.21872510286055,23.12928966082654,-0.08943544203400933,0.08943544203400933,-0.385186704428448,3.5919540229885056,3.4532374100719423,-0.13871661291656334,0.13871661291656334,-3.8618705035971237,23.235293495142578,23.145822686212608,-0.0894708089299705,0.0894708089299705,-0.38506425128081423,16.429833593274996,16.366568177562367,-0.06326541571262823,0.06326541571262823,-0.38506425128081523,71.42712426097935,71.48446951088609,0.05734524990673151,0.05734524990673151,0.08028497647084921,0.23002233063792288,0.2289527821853664,-0.001069548452556468,0.001069548452556468,-0.46497592194213505,1.0827239482177928,1.180095447058858,0.09737149884106522,0.09737149884106522,8.993197111908591,1.3180806021470912,1.3219981827982619,0.003917580651170649,0.003917580651170649,0.2972185953415212,492.87552988095445,480.0420218595205,-12.833508021433943,12.833508021433943,-2.6038030381694246,142.84777245208284,143.64000719742378,0.7922347453409486,0.7922347453409486,0.5546006995710749,3.4503550277361565,3.341979934599517,-0.1083750931366394,0.1083750931366394,-3.140983819504115,False
s8_sit,msptdfast,MSPTDfast v2,mid_upslope,none,1.0,100.0,False,False,697,698,0.9805123176859909,0.0,0.02205764186775563,697,0,1,0.998567335243553,1.0,0.9992831541218639,237.99999999997254,4.594827586206852,6.103042391854156,0.020114942528722236,6.107398319363229,696,700.8493543758967,700.8045977011494,-0.044756674747304714,0.044756674747304714,-0.006386062064244939,51.82554154129068,52.02862279881635,0.20308125752566752,0.20308125752566752,0.39185554359112235,23.21872510286055,24.527183568704643,1.3084584658440939,1.3084584658440939,5.635358789285514,3.5919540229885056,5.467625899280575,1.8756718762920697,1.8756718762920697,52.21870503597122,23.235293495142578,24.54474250323238,1.3094490080898034,1.3094490080898034,5.635603476941439,16.429833593274996,17.355753866513293,0.9259202732382974,0.9259202732382974,5.635603476941434,71.42712426097935,71.50337746154396,0.07625320056460794,0.07625320056460794,0.10675664371702147,0.23002233063792288,0.24272635059578251,0.012704019957859636,0.012704019957859636,5.5229507164054334,1.0827239482177928,0.9128551126101327,-0.16986883560766008,0.16986883560766008,-15.689025433239104,1.3180806021470912,1.3021317001631947,-0.015948901983896535,0.015948901983896535,-1.2100096123041735,492.87552988095445,479.88463364477155,-12.990896236182891,12.990896236182891,-2.6357356875316205,142.84777245208284,143.5431469275486,0.6953744754657691,0.6953744754657691,0.48679406302889816,3.4503550277361565,3.3431385887546874,-0.10721643898146915,0.10721643898146915,-3.1074030967710558,False
s8_sit,msptdfast,MSPTDfast v2,mid_upslope,none,1.0,50.0,True,False,697,698,0.9805123176859909,0.0,0.03734822894998964,697,0,1,0.998567335243553,1.0,0.9992831541218639,237.4400622713435,3.3127202070642143,4.758310314405117,0.02113406182035643,4.7616853612262915,696,700.8493543758967,700.805616820441,-0.04373755545577751,0.04373755545577751,-0.006240650031664167,51.82554154129068,51.85489709969185,0.029355558401164217,0.029355558401164217,0.05664303262084762,23.21872510286055,23.131706562100163,-0.08701854076038629,0.08701854076038629,-0.374777428023667,3.5919540229885056,3.3093525179856114,-0.28260150500289427,0.28260150500289427,-7.8676258992805765,23.235293495142578,23.148239181019115,-0.08705431412346343,0.08705431412346343,-0.37466414677164483,16.429833593274996,16.36827689742675,-0.06155669584824608,0.06155669584824608,-0.3746641467716524,71.42712426097935,71.4838458523912,0.05672159141184352,0.05672159141184352,0.07941183688789573,0.23002233063792288,0.22897868325699794,-0.0010436473809249391,0.0010436473809249391,-0.4537156797040457,1.0827239482177928,1.175625530044371,0.09290158182657815,0.09290158182657815,8.580357161167248,1.3180806021470912,1.3223904979104353,0.004309895763344063,0.004309895763344063,0.32698271686294794,492.87552988095445,480.0056937210425,-12.869836159911927,12.869836159911927,-2.6111736898401943,142.84777245208284,143.52331908724432,0.6755466351614814,0.6755466351614814,0.47291366436119137,3.4503550277361565,3.344443932691236,-0.10591109504492069,0.10591109504492069,-3.069570933818105,False
s8_sit,msptdfast,MSPTDfast v2,mid_upslope,none,1.0,50.0,False,False,697,698,0.9805123176859909,0.0,0.0343479470515632,697,0,1,0.998567335243553,1.0,0.9992831541218639,238.0000000000055,7.410919540231237,9.185508326619628,0.02011494252870917,9.192092190339356,696,700.8493543758967,700.8045977011494,-0.044756674747304714,0.044756674747304714,-0.006386062064244939,51.82554154129068,52.323694032895034,0.49815249160435116,0.49815249160435116,0.9612103931561637,23.21872510286055,26.214390029226873,2.9956649263663238,2.9956649263663238,12.901935455522738,3.5919540229885056,4.172661870503598,0.5807078475150922,0.5807078475150922,16.16690647482017,23.235293495142578,26.233016774985924,2.9977232798433455,2.9977232798433455,12.901594208267824,16.429833593274996,18.549544052573005,2.119710459298009,2.119710459298009,12.901594208267827,71.42712426097935,71.63415616825317,0.20703190727381582,0.20703190727381582,0.2898505426557084,0.23002233063792288,0.25894831522834066,0.028925984590417786,0.028925984590417786,12.575294107401271,1.0827239482177928,1.3752280990428167,0.2925041508250239,0.2925041508250239,27.015579668898752,1.3180806021470912,1.2712941820012211,-0.04678642014587009,0.04678642014587009,-3.549587185310004,492.87552988095445,472.5262032047549,-20.349326676199553,20.349326676199553,-4.128694861583934,142.84777245208284,158.24278477563738,15.395012323554539,15.395012323554539,10.777215534613026,3.4503550277361565,2.986083718601897,-0.4642713091342596,0.4642713091342596,-13.455754709360354,False
s8_sit,msptdfast,MSPTDfast v2,mid_upslope,none,1.0,30.0,True,False,697,698,0.9805123176859909,0.0,0.043212758916009425,697,0,1,0.998567335243553,1.0,0.9992831541218639,237.95649831839825,3.346183047372879,4.808394703546429,0.020890709395048532,4.811807322780141,696,700.8493543758967,700.8053734680158,-0.043980907880950326,0.043980907880950326,-0.006275372532819857,51.82554154129068,51.856807162440234,0.03126562114955078,0.03126562114955078,0.06032859516700022,23.21872510286055,23.16355537030227,-0.05516973255828006,0.05516973255828006,-0.23760879339358362,3.5919540229885056,3.741007194244604,0.14905317125609852,0.14905317125609852,4.149640287769783,23.235293495142578,23.180112914155476,-0.05518058098710199,0.05518058098710199,-0.23748605111718382,16.429833593274996,16.390815030269202,-0.03901856300579354,0.03901856300579354,-0.2374860511171853,71.42712426097935,71.48145270493967,0.05432844396031555,0.05432844396031555,0.07606136257398674,0.23002233063792288,0.22930164972901465,-0.0007206809089082278,0.0007206809089082278,-0.3133091065156836,1.0827239482177928,1.18333205766548,0.10060810944768717,0.10060810944768717,9.292129320062806,1.3180806021470912,1.3224283675349953,0.004347765387904046,0.004347765387904046,0.32985580554191757,492.87552988095445,480.12175452645596,-12.753775354498487,12.753775354498487,-2.5876259991196844,142.84777245208284,143.15841288706582,0.3106404349829859,0.3106404349829859,0.2174625684745541,3.4503550277361565,3.3537795288720633,-0.09657549886409322,0.09657549886409322,-2.7990017864178527,False
s8_sit,msptdfast,MSPTDfast v2,mid_upslope,none,1.0,30.0,False,False,697,698,0.9805123176859909,0.0,0.043207317073122614,697,0,1,0.998567335243553,1.0,0.9992831541218639,239.99999999999375,11.746168582377067,14.251638340989018,-0.018199233716477654,14.261876004239351,696,700.8493543758967,700.7662835249042,-0.08307085099249889,0.08307085099249889,-0.011852882573669931,51.82554154129068,53.549206159089714,1.723664617799031,1.723664617799031,3.3258979386172838,23.21872510286055,32.9231355389671,9.704410436106553,9.704410436106553,41.79562139228294,3.5919540229885056,9.640287769784173,6.0483337467956675,6.0483337467956675,168.3856115107914,23.235293495142578,32.946706999158735,9.711413504016157,9.711413504016157,41.795957972497156,16.429833593274996,23.296839936871432,6.867006343596437,6.867006343596437,41.795957972497156,71.42712426097935,72.05756177871393,0.6304375177345776,0.6304375177345776,0.8826304072261042,0.23002233063792288,0.3233087459774889,0.093286415339566,0.093286415339566,40.555373506934735,1.0827239482177928,1.0901337424254793,0.007409794207686504,0.007409794207686504,0.6843659660325537,1.3180806021470912,1.1768301141837205,-0.1412504879633707,0.1412504879633707,-10.716377111785144,492.87552988095445,473.82536768534476,-19.050162195609687,19.050162195609687,-3.8651061050263387,142.84777245208284,176.9385949865652,34.090822534482356,34.090822534482356,23.865141156413802,3.4503550277361565,2.677908501089443,-0.7724465266467138,0.7724465266467138,-22.387450579354745,False
s8_sit,msptdfast,MSPTDfast v2,mid_upslope,none,1.0,25.0,True,False,697,698,0.9805123176859909,0.0,0.03143724721146223,697,0,1,0.998567335243553,1.0,0.9992831541218639,238.1187813608122,3.4777822491833064,4.965155264370714,0.01959936702236265,4.968687323460142,696,700.8493543758967,700.804082125643,-0.04527225025367443,0.04527225025367443,-0.0064596264476820655,51.82554154129068,51.87431233790458,0.04877079661389416,0.04877079661389416,0.09410571537402512,23.21872510286055,23.32700870272153,0.1082835998609788,0.1082835998609788,0.46636324510185206,3.5919540229885056,3.741007194244604,0.14905317125609852,0.14905317125609852,4.149640287769783,23.235293495142578,23.343699966017514,0.10840647087493593,0.10840647087493593,0.4665595074045383,16.429833593274996,16.506488543955165,0.07665495068016881,0.07665495068016881,0.46655950740453606,71.42712426097935,71.48023780744741,0.05311354646805455,0.05311354646805455,0.07436047162418169,0.23002233063792288,0.23092380565968654,0.0009014750217636591,0.0009014750217636591,0.39190761143215563,1.0827239482177928,1.195060832792488,0.11233688457469526,0.11233688457469526,10.375394832598493,1.3180806021470912,1.3217150759220606,0.0036344737749693934,0.0036344737749693934,0.275739872739877,492.87552988095445,479.8585439866519,-13.016985894302536,13.016985894302536,-2.641029043873727,142.84777245208284,143.1097263069615,0.2619538548786693,0.2619538548786693,0.18337972681130862,3.4503550277361565,3.353081278049439,-0.09727374968671754,0.09727374968671754,-2.8192388581687693,False
s8_sit,msptdfast,MSPTDfast v2,mid_upslope,none,1.0,25.0,False,False,697,698,0.9805123176859909,0.0,0.03413897536445364,697,0,1,0.998567335243553,1.0,0.9992831541218639,239.99999999999574,13.864942528735344,16.924613104458047,0.020114942528709986,16.936772746478788,696,700.8493543758967,700.8045977011494,-0.044756674747304714,0.044756674747304714,-0.006386062064244939,51.82554154129068,54.405213267013664,2.5796717257229815,2.5796717257229815,4.977606888425264,23.21872510286055,36.35160036258006,13.132875259719508,13.132875259719508,56.56156917117528,3.5919540229885056,7.194244604316546,3.602290581328041,3.602290581328041,100.28776978417267,23.235293495142578,36.37759847155072,13.142304976408141,13.142304976408141,56.5618204011737,16.429833593274996,25.722846562514903,9.293012969239907,9.293012969239907,56.5618204011737,71.42712426097935,72.51337549707497,1.0862512360956202,1.0862512360956202,1.5207825421148018,0.23002233063792288,0.35473243916982605,0.12471010853190317,0.12471010853190317,54.21652245068711,1.0827239482177928,1.025023725621835,-0.05770022259595775,0.05770022259595775,-5.329172102541431,1.3180806021470912,1.127142152163218,-0.19093844998387333,0.19093844998387333,-14.48609816978139,492.87552988095445,489.54881037616303,-3.326719504791413,3.326719504791413,-0.6749613854018933,142.84777245208284,183.02222585162798,40.17445339954514,40.17445339954514,28.12396211009965,3.4503550277361565,2.674805248915666,-0.7755497788204906,0.7755497788204906,-22.477390662297832,False
s8_sit,msptdfast,MSPTDfast v2,mid_upslope,none,1.0,500.0,True,False,697,698,0.9805123176859909,0.0,0.02473431793111014,697,0,1,0.998567335243553,1.0,0.9992831541218639,237.158749100129,3.2855222154019055,4.74223956615122,0.019691057886285175,4.745609112081537,696,700.8493543758967,700.8041738165069,-0.0451805593897916,0.0451805593897916,-0.006446543627057299,51.82554154129068,51.859780378246136,0.03423883695545271,0.03423883695545271,0.06606556523519158,23.21872510286055,23.160092442830614,-0.058632660029935835,0.058632660029935835,-0.25252316727205787,3.5919540229885056,3.1654676258992804,-0.4264863970892252,0.4264863970892252,-11.873381294964028,23.235293495142578,23.176646437961903,-0.05864705718067498,0.05864705718067498,-0.25240506298289433,16.429833593274996,16.388363861445903,-0.04146973182909264,0.04146973182909264,-0.25240506298290744,71.42712426097935,71.48632856501095,0.05920430403159571,0.05920430403159571,0.08288770497783995,0.23002233063792288,0.22925172113912706,-0.0007706094987958156,0.0007706094987958156,-0.3350150816482373,1.0827239482177928,1.1832578085875212,0.10053386036972833,0.10053386036972833,9.285271701546005,1.3180806021470912,1.3213394782636538,0.0032588761165626146,0.0032588761165626146,0.24724406923628636,492.87552988095445,480.011343600147,-12.864186280807473,12.864186280807473,-2.6100273803235057,142.84777245208284,143.81557169979598,0.9677992477131454,0.9677992477131454,0.6775039128018507,3.4503550277361565,3.337686857735642,-0.11266817000051432,0.11266817000051432,-3.265408025980389,True
