record,detector,detector_label,fiducial,correction,coverage_target,fs,sub_sample,failed,n_detected,n_ref,analysable_fraction,fraction_corrected,detect_s_per_min,tp,fp,fn,sensitivity,ppv,f1,lag_ms,ibi_mae,ibi_rmse,ibi_bias,ibi_sd,n_ibi,mean_nn_ref,mean_nn_test,mean_nn_err,mean_nn_abserr,mean_nn_pcterr,sdnn_ref,sdnn_test,sdnn_err,sdnn_abserr,sdnn_pcterr,rmssd_ref,rmssd_test,rmssd_err,rmssd_abserr,rmssd_pcterr,pnn50_ref,pnn50_test,pnn50_err,pnn50_abserr,pnn50_pcterr,sdsd_ref,sdsd_test,sdsd_err,sdsd_abserr,sdsd_pcterr,sd1_ref,sd1_test,sd1_err,sd1_abserr,sd1_pcterr,sd2_ref,sd2_test,sd2_err,sd2_abserr,sd2_pcterr,sd1_sd2_ref,sd1_sd2_test,sd1_sd2_err,sd1_sd2_abserr,sd1_sd2_pcterr,sampen_ref,sampen_test,sampen_err,sampen_abserr,sampen_pcterr,dfa_a1_ref,dfa_a1_test,dfa_a1_err,dfa_a1_abserr,dfa_a1_pcterr,lf_ref,lf_test,lf_err,lf_abserr,lf_pcterr,hf_ref,hf_test,hf_err,hf_abserr,hf_pcterr,lf_hf_ref,lf_hf_test,lf_hf_err,lf_hf_abserr,lf_hf_pcterr
s1_sit,msptdfast,MSPTDfast v2,mid_upslope,none,1.0,100.0,True,False,612,613,0.9841512286143937,0.0,0.021741207592875646,612,0,1,0.99836867862969,1.0,0.9991836734693879,314.2833363053641,4.915138760045764,6.958672536648322,0.01755308976177779,6.964351874070565,611,828.437908496732,828.387438523477,-0.0504699732549625,0.0504699732549625,-0.006092185393416432,46.977980713169195,47.81982431715919,0.841843603989993,0.841843603989993,1.7919961463009446,30.45299025358163,32.492268179563794,2.039277925982166,2.039277925982166,6.696478437753162,9.00163666121113,11.80327868852459,2.801642027313461,2.801642027313461,31.123695976154995,30.477600635297417,32.518469778362025,2.040869143064608,2.040869143064608,6.696292032585367,21.550918083514233,22.994030494089596,1.4431124105753632,1.4431124105753632,6.6962920325853705,62.844405268340736,63.59831567804933,0.7539104097085954,0.7539104097085954,1.1996460249555332,0.3429250064742197,0.36155093494128304,0.018625928467063346,0.018625928467063346,5.431487385118297,1.6764542772105453,1.7514783105883347,0.0750240333777894,0.0750240333777894,4.4751613209888434,1.1460653887927263,1.130106628686738,-0.01595876010598829,0.01595876010598829,-1.3924825112116304,570.2327955867494,600.8345753179418,30.601779731192437,30.601779731192437,5.366541519188543,327.28840925752615,330.36001877787953,3.071609520353377,3.071609520353377,0.938502383057656,1.7422945006832276,1.818726665353286,0.07643216467005853,0.07643216467005853,4.386868272848605
s1_sit,msptd,MSPTD,mid_upslope,none,1.0,100.0,True,False,612,613,0.9841512286143937,0.0,0.8590007755116702,612,0,1,0.99836867862969,1.0,0.9991836734693879,314.2833363053641,4.9369030667170515,7.000914395016204,0.01755308976177798,7.006628476423112,611,828.437908496732,828.387438523477,-0.0504699732549625,0.0504699732549625,-0.006092185393416432,46.977980713169195,47.82941736258255,0.8514366494133512,0.8514366494133512,1.812416448063019,30.45299025358163,32.54765800061918,2.094667747037551,2.094667747037551,6.878364750375191,9.00163666121113,11.967213114754099,2.965576453542969,2.965576453542969,32.944858420268254,30.477600635297417,32.573905846794794,2.096305211497377,2.096305211497377,6.878183215871515,21.550918083514233,23.03322971400073,1.482311630486496,1.482311630486496,6.878183215871519,62.844405268340736,63.59855862698697,0.754153358646235,0.754153358646235,1.2000326129685828,0.3429250064742197,0.3621659077070179,0.019240901232798202,0.019240901232798202,5.610818945699922,1.6764542772105453,1.751268107873318,0.0748138306627728,0.0748138306627728,4.462622791434291,1.1460653887927263,1.1296446936645057,-0.01642069512822064,0.01642069512822064,-1.4327886775743504,570.2327955867494,600.633418503848,30.400622917098644,30.400622917098644,5.331265257344148,327.28840925752615,330.4948366399759,3.2064273824497604,3.2064273824497604,0.9796947559871545,1.7422945006832276,1.8173761036943135,0.0750816030110859,0.0750816030110859,4.309352005739743
s1_sit,qppg,qppg (slope-sum),mid_upslope,none,1.0,100.0,True,False,589,613,0.9841512286143937,0.01020408163265306,0.0031713367921550667,588,1,25,0.9592169657422512,0.99830220713073,0.978369384359401,314.4970592353347,4.259434930910766,5.719707213127332,-0.18201193795222806,5.72176226100343,578,828.437908496732,833.4060014623873,4.9680929656552735,4.9680929656552735,0.5996940645401274,46.977980713169195,76.32111646446138,29.343135751292188,29.343135751292188,62.46146663997952,30.45299025358163,88.2943333809591,57.84134312737747,57.84134312737747,189.93649768293164,9.00163666121113,11.53184165232358,2.5302049911124502,2.5302049911124502,28.108277264903762,30.477600635297417,88.36888840462856,57.89128776933114,57.89128776933114,189.94699898483725,21.550918083514233,62.48624023683013,40.935322153315894,40.935322153315894,189.94699898483728,62.844405268340736,88.00736002078979,25.162954752449053,25.162954752449053,40.04008733156944,0.3429250064742197,0.7100115288320106,0.3670865223577909,0.3670865223577909,107.04571420206057,1.6764542772105453,1.2977122715497338,-0.3787420056608115,0.3787420056608115,-22.591848212585962,1.1460653887927263,0.8086961872333288,-0.33736920155939754,0.33736920155939754,-29.43716866930121,570.2327955867494,1113.2310485420157,542.9982529552664,542.9982529552664,95.22396066268696,327.28840925752615,986.6554494553927,659.3670401978666,659.3670401978666,201.4636087155305,1.7422945006832276,1.1282875386301159,-0.6140069620531117,0.6140069620531117,-35.24128451374515
s1_sit,terma,TERMA,mid_upslope,none,1.0,100.0,True,False,612,613,0.9841512286143937,0.0,0.00039897097103329913,611,1,2,0.9967373572593801,0.9983660130718954,0.9975510204081632,314.29716253855,4.946618855333395,7.379484570821854,0.22394221802909067,7.382159199334437,608,828.437908496732,830.9120752557743,2.474166759042305,2.474166759042305,0.2986544596361943,46.977980713169195,65.2362313617334,18.258250648564207,18.258250648564207,38.865550139420804,30.45299025358163,56.022202486620834,25.569212233039206,25.569212233039206,83.96289500677841,9.00163666121113,12.295081967213115,3.293445306001985,3.293445306001985,36.58718330849477,30.477600635297417,56.065303522301306,25.58770288700389,25.58770288700389,83.95576539371565,21.550918083514233,39.644156309901284,18.09323822638705,18.09323822638705,83.95576539371565,62.844405268340736,83.30589796070463,20.46149269236389,20.46149269236389,32.55897260065539,0.3429250064742197,0.4758865492164963,0.13296154274227662,0.13296154274227662,38.77277545586993,1.6764542772105453,1.4386089968786016,-0.23784528033194374,0.23784528033194374,-14.187400370244205,1.1460653887927263,0.9016018401798712,-0.24446354861285513,0.24446354861285513,-21.330680692693704,570.2327955867494,3015.6568295545303,2445.424033967781,2445.424033967781,428.8466136802121,327.28840925752615,1380.235352582328,1052.9469433248019,1052.9469433248019,321.71837240233367,1.7422945006832276,2.1848859500029745,0.4425914493197469,0.4425914493197469,25.40279207368146
s1_sit,heartpy,HeartPy,mid_upslope,none,1.0,100.0,True,False,611,613,0.9841512286143937,0.001639344262295082,0.030741987041081446,611,0,2,0.9967373572593801,1.0,0.9983660130718954,314.29716253855,4.944686274804373,7.375005532924034,0.21738455049019467,7.377860885320648,609,828.437908496732,828.6541661596856,0.21625766295358062,0.21625766295358062,0.02610426934059521,46.977980713169195,48.08401911070299,1.1060383975337942,1.1060383975337942,2.3543762008138884,30.45299025358163,32.814797610281005,2.3618073566993765,2.3618073566993765,7.7555843844320025,9.00163666121113,11.842105263157894,2.840468601946764,2.840468601946764,31.55502392344496,30.477600635297417,32.84073415172291,2.3631335164254956,2.3631335164254956,7.75367308176041,21.550918083514233,23.221905817827913,1.6709877343136803,1.6709877343136803,7.7536730817604145,62.844405268340736,63.91313540943545,1.0687301410947114,1.0687301410947114,1.7005971120759542,0.3429250064742197,0.36333541875336756,0.02041041227914786,0.02041041227914786,5.951858830301507,1.6764542772105453,1.737909577843667,0.06145530063312177,0.06145530063312177,3.6657904404871293,1.1460653887927263,1.147390479721058,0.0013250909283315515,0.0013250909283315515,0.1156208835280692,570.2327955867494,597.3535507341929,27.12075514744356,27.12075514744356,4.756084770525565,327.28840925752615,335.3816738497402,8.093264592214041,8.093264592214041,2.4728234680152923,1.7422945006832276,1.7811156581018885,0.03882115741866099,0.03882115741866099,2.22816277061298
s1_sit,findpeaks,find_peaks baseline,mid_upslope,none,1.0,100.0,True,False,613,613,0.9841512286143937,0.0,0.0001503507517855614,612,1,1,0.99836867862969,0.99836867862969,0.99836867862969,314.286926765631,4.951601615500913,7.3782913414813445,0.23204956614462666,7.380693653390349,610,828.437908496732,829.5543757864021,1.1164672896701404,1.1164672896701404,0.13476776934267304,46.977980713169195,59.28613388172941,12.308153168560217,12.308153168560217,26.19983443671071,30.45299025358163,58.50645053077456,28.05346027719293,28.05346027719293,92.12054397151857,9.00163666121113,12.274959083469723,3.273322422258593,3.273322422258593,36.36363636363636,30.477600635297417,58.55164276590458,28.074042130607165,28.074042130607165,92.11368856278473,21.550918083514233,41.40226364938339,19.85134556586916,19.85134556586916,92.11368856278474,62.844405268340736,72.907776718205,10.063371449864263,10.063371449864263,16.013154085704922,0.3429250064742197,0.5678717074230202,0.22494670094880048,0.22494670094880048,65.59647056993246,1.6764542772105453,1.5266793222240869,-0.14977495498645843,0.14977495498645843,-8.934031606019653,1.1460653887927263,0.8453283348081863,-0.3007370539845401,0.3007370539845401,-26.24082857098919,570.2327955867494,1313.660138815385,743.4273432286356,743.4273432286356,130.37260378257886,327.28840925752615,1305.220988632765,977.9325793752389,977.9325793752389,298.79841501070536,1.7422945006832276,1.0064656868500559,-0.7358288138331717,0.7358288138331717,-42.23332011577963
s1_sit,msptdfast,MSPTDfast v2,mid_upslope,median_mad,1.0,100.0,True,False,612,613,0.9841512286143937,0.006546644844517185,0.025267476557530182,612,0,1,0.99836867862969,1.0,0.9991836734693879,314.2833363053641,4.915138760045764,6.958672536648322,0.01755308976177779,6.964351874070565,611,828.437908496732,828.0659795842229,-0.3719289125091336,0.3719289125091336,-0.044895206833790224,46.977980713169195,47.709090232155575,0.7311095189863792,0.7311095189863792,1.5562812787766962,30.45299025358163,32.40605188877091,1.9530616351892824,1.9530616351892824,6.413365711958548,9.00163666121113,11.55115511551155,2.5495184543004203,2.5495184543004203,28.322832283228305,30.477600635297417,32.432351091654375,1.9547504563569582,1.9547504563569582,6.4137281662949475,21.550918083514233,22.93313538673174,1.3822173032175051,1.3822173032175051,6.413728166294954,62.844405268340736,63.45380904952639,0.6094037811856552,0.6094037811856552,0.9697025193946037,0.3429250064742197,0.3614146373597868,0.0184896308855671,0.0184896308855671,5.391741790914599,1.6764542772105453,1.7466143392359568,0.07016006202541147,0.07016006202541147,4.1850268736318235,1.1460653887927263,1.0928287706608715,-0.053236618131854874,0.053236618131854874,-4.6451641112672215,570.2327955867494,590.3071859013926,20.07439031464321,20.07439031464321,3.5203850900906835,327.28840925752615,327.5519870781804,0.2635778206542341,0.2635778206542341,0.08053380846947086,1.7422945006832276,1.802178613437926,0.059884112754698515,0.059884112754698515,3.4370832675655816
s1_sit,msptd,MSPTD,mid_upslope,median_mad,1.0,100.0,True,False,612,613,0.9841512286143937,0.006546644844517185,0.8762964027304038,612,0,1,0.99836867862969,1.0,0.9991836734693879,314.2833363053641,4.9369030667170515,7.000914395016204,0.01755308976177798,7.006628476423112,611,828.437908496732,828.0659795842229,-0.3719289125091336,0.3719289125091336,-0.044895206833790224,46.977980713169195,47.718768999748875,0.7407882865796793,0.7407882865796793,1.5768840536222035,30.45299025358163,32.46115961907049,2.0081693654888646,2.0081693654888646,6.594325709123689,9.00163666121113,11.716171617161717,2.7145349559505867,2.7145349559505867,30.15601560156015,30.477600635297417,32.4875051473533,2.0099045120558863,2.0099045120558863,6.594694038113123,21.550918083514233,22.97213519352639,1.421217110012158,1.421217110012158,6.594694038113132,62.844405268340736,63.45425781106524,0.6098525427245036,0.6098525427245036,0.9704166029107613,0.3429250064742197,0.3620266942830821,0.0191016878088624,0.0191016878088624,5.57022306575313,1.6764542772105453,1.743689045982972,0.06723476877242662,0.06723476877242662,4.0105339994299545,1.1460653887927263,1.092612740723423,-0.05345264806930339,0.05345264806930339,-4.664013815617519,570.2327955867494,590.1085252668986,19.87572968014922,19.87572968014922,3.4855465757099777,327.28840925752615,327.7011982068745,0.41278894934833943,0.41278894934833943,0.1261239132436057,1.7422945006832276,1.800751808342089,0.05845730765886148,0.05845730765886148,3.3551909643253706
s1_sit,qppg,qppg (slope-sum),mid_upslope,median_mad,1.0,100.0,True,False,589,613,0.9841512286143937,0.02040816326530612,0.003171868234428069,588,1,25,0.9592169657422512,0.99830220713073,0.978369384359401,314.4970592353347,4.259434930910766,5.719707213127332,-0.18201193795222806,5.72176226100343,578,828.437908496732,828.8988315203005,0.4609230235685118,0.4609230235685118,0.055637606493031455,46.977980713169195,48.21547653109378,1.2374958179245823,1.2374958179245823,2.6342039379689193,30.45299025358163,32.85094008173711,2.397949828155479,2.397949828155479,7.874267217070586,9.00163666121113,10.608695652173914,1.6070589909627842,1.6070589909627842,17.852964426877474,30.477600635297417,32.87535015903828,2.3977495237408597,2.3977495237408597,7.867251600389838,21.550918083514233,23.246383031338212,1.6954649478239787,1.6954649478239787,7.8672516003898485,62.844405268340736,64.10202828461217,1.2576230162714381,1.2576230162714381,2.0011694134131517,0.3429250064742197,0.3626466065648434,0.01972160009062368,0.01972160009062368,5.750995033401364,1.6764542772105453,1.6973022588751683,0.020847981664622983,0.020847981664622983,1.2435759178181687,1.1460653887927263,1.158042942591172,0.011977553798445673,0.011977553798445673,1.04510213078356,570.2327955867494,575.0021445931156,4.769349006366269,4.769349006366269,0.8363863045545772,327.28840925752615,304.81017329196,-22.47823596556617,22.47823596556617,-6.868020782208399,1.7422945006832276,1.8864270125339762,0.1441325118507486,0.1441325118507486,8.272568833468057
s1_sit,terma,TERMA,mid_upslope,median_mad,1.0,100.0,True,False,612,613,0.9841512286143937,0.008183306055646482,0.00038233094252750966,611,1,2,0.9967373572593801,0.9983660130718954,0.9975510204081632,314.29716253855,4.946618855333395,7.379484570821854,0.22394221802909067,7.382159199334437,608,828.437908496732,828.180734603276,-0.2571738934559562,0.2571738934559562,-0.03104323097944892,46.977980713169195,48.69543181648267,1.717451103313472,1.717451103313472,3.6558640393669033,30.45299025358163,33.38952003874383,2.936529785162204,2.936529785162204,9.642829031598412,9.00163666121113,11.735537190082644,2.733900528871514,2.733900528871514,30.371149511645363,30.477600635297417,33.412244248604246,2.9346436133068288,2.9346436133068288,9.62885382095365,21.550918083514233,23.626024482849285,2.075106399335052,2.075106399335052,9.628853820953653,62.844405268340736,64.68617415432166,1.841768885980926,1.841768885980926,2.9306807473421315,0.3429250064742197,0.36524071475435743,0.022315708280137736,0.022315708280137736,6.507460190662817,1.6764542772105453,1.719382499756863,0.042928222546317674,0.042928222546317674,2.5606557321531014,1.1460653887927263,1.178838098254712,0.03277270946198563,0.03277270946198563,2.8595846085630976,570.2327955867494,593.1850043369125,22.952208750163095,22.952208750163095,4.025059401668766,327.28840925752615,329.44410805204393,2.1556987945177752,2.1556987945177752,0.6586541819211106,1.7422945006832276,1.800563403134847,0.05826890245161942,0.05826890245161942,3.344377338548088
s1_sit,heartpy,HeartPy,mid_upslope,median_mad,1.0,100.0,True,False,611,613,0.9841512286143937,0.006557377049180328,0.019528438033440666,611,0,2,0.9967373572593801,1.0,0.9983660130718954,314.29716253855,4.944686274804373,7.375005532924034,0.21738455049019467,7.377860885320648,609,828.437908496732,828.3952518781758,-0.04265661855617964,0.04265661855617964,-0.0051490423263686165,46.977980713169195,47.96157972821551,0.9835990150463161,0.9835990150463161,2.0937447717300177,30.45299025358163,32.694890445435675,2.2419001918540467,2.2419001918540467,7.361839258430042,9.00163666121113,11.570247933884298,2.5686112726731682,2.5686112726731682,28.53493613824192,30.477600635297417,32.720847134377145,2.243246499079728,2.243246499079728,7.360312007244192,21.550918083514233,23.13713289488649,1.5862148113722583,1.5862148113722583,7.360312007244193,62.844405268340736,63.75969997934673,0.9152947110059912,0.9152947110059912,1.4564458158172615,0.3429250064742197,0.3628802033632711,0.019955196889051396,0.019955196889051396,5.819113949787614,1.6764542772105453,1.7327436997278522,0.05628942251730695,0.05628942251730695,3.357647344308549,1.1460653887927263,1.1554957126473262,0.009430323854599854,0.009430323854599854,0.822843438674457,570.2327955867494,586.8272572903005,16.594461703551133,16.594461703551133,2.910120538836427,327.28840925752615,332.58329179654703,5.294882539020875,5.294882539020875,1.617803255248984,1.7422945006832276,1.7644520087596087,0.02215750807638117,0.02215750807638117,1.2717429841908054
s1_sit,findpeaks,find_peaks baseline,mid_upslope,median_mad,1.0,100.0,True,False,613,613,0.9841512286143937,0.006535947712418301,0.0001412453840278323,612,1,1,0.99836867862969,0.99836867862969,0.99836867862969,314.286926765631,4.951601615500913,7.3782913414813445,0.23204956614462666,7.380693653390349,610,828.437908496732,827.9390107506117,-0.49889774612029214,0.49889774612029214,-0.06022150133443105,46.977980713169195,48.8208319642015,1.8428512510323074,1.8428512510323074,3.9227979216137454,30.45299025358163,33.29830807954779,2.845317825966159,2.845317825966159,9.343311780791433,9.00163666121113,11.86161449752883,2.8599778363177,2.8599778363177,31.77175378163845,30.477600635297417,33.32088485074117,2.843284215443756,2.843284215443756,9.329094666825007,21.550918083514233,23.561423633095185,2.0105055495809516,2.0105055495809516,9.329094666825004,62.844405268340736,64.89843282957935,2.0540275612386125,2.0540275612386125,3.2684334468089467,0.3429250064742197,0.3630507333661897,0.02012572689197001,0.02012572689197001,5.868842024351762,1.6764542772105453,1.7180717534368959,0.04161747622635059,0.04161747622635059,2.4824701032465954,1.1460653887927263,1.1493311990981396,0.003265810305413286,0.003265810305413286,0.28495846199958225,570.2327955867494,588.4303242560204,18.197528669271037,18.197528669271037,3.1912455421906105,327.28840925752615,331.45791593359417,4.169506676068011,4.169506676068011,1.2739548844784307,1.7422945006832276,1.7752791409389943,0.03298464025576675,0.03298464025576675,1.8931724942500865
s1_sit,msptdfast,MSPTDfast v2,mid_upslope,lipponen_tarvainen,1.0,100.0,True,False,612,613,0.9841512286143937,0.0,0.021736330139196212,612,0,1,0.99836867862969,1.0,0.9991836734693879,314.00000000000585,5.003273322423064,7.18187844987188,0.018003273322441796,7.187740241343785,611,828.437908496732,828.3878887070376,-0.050019789694374595,0.050019789694374595,-0.006037844137907641,46.977980713169195,47.75942221649211,0.7814415033229167,0.7814415033229167,1.6634208015327863,30.45299025358163,32.22706326299912,1.7740730094174886,1.7740730094174886,5.8256118517255855,9.00163666121113,10.98360655737705,1.9819698961659196,1.9819698961659196,22.01788375558867,30.477600635297417,32.2530425323083,1.7754418970108823,1.7754418970108823,5.825399178420452,21.550918083514233,22.806345088493337,1.2554270049791043,1.2554270049791043,5.825399178420459,62.844405268340736,63.57511655208252,0.7307112837417833,0.7307112837417833,1.162730843933844,0.3429250064742197,0.3587306846666925,0.015805678192472805,0.015805678192472805,4.609077172580308,1.6764542772105453,1.7360774790207016,0.059623201810156345,0.059623201810156345,3.556506289534092,1.1460653887927263,1.134574319055397,-0.011491069737329385,0.011491069737329385,-1.002653936651395,570.2327955867494,599.6515429379017,29.41874735115232,29.41874735115232,5.159076710219985,327.28840925752615,328.24775381373945,0.9593445562132956,0.9593445562132956,0.29311901340766316,1.7422945006832276,1.826826036037911,0.08453153535468338,0.08453153535468338,4.851736335133641
s1_sit,msptd,MSPTD,mid_upslope,lipponen_tarvainen,1.0,100.0,True,False,612,613,0.9841512286143937,0.0,0.8806564564262641,612,0,1,0.99836867862969,1.0,0.9991836734693879,314.00000000000585,5.026186579378892,7.224820828680755,0.018003273322441796,7.230717938640576,611,828.437908496732,828.3878887070376,-0.050019789694374595,0.050019789694374595,-0.006037844137907641,46.977980713169195,47.77174331792249,0.7937626047532973,0.7937626047532973,1.689648198375594,30.45299025358163,32.291957076077274,1.838966822495646,1.838966822495646,6.038706896047301,9.00163666121113,11.147540983606557,2.1459043223954275,2.1459043223954275,23.83904619970193,30.477600635297417,32.3179905447969,1.840389909499482,1.840389909499482,6.038499984044175,21.550918083514233,22.852270268548615,1.301352185034382,1.301352185034382,6.038499984044184,62.844405268340736,63.577139467265695,0.732734198924959,0.732734198924959,1.1659497703832835,0.3429250064742197,0.35944162414407915,0.016516617669859457,0.016516617669859457,4.8163934848831556,1.6764542772105453,1.7316555451583495,0.05520126794780422,0.05520126794780422,3.292739247243515,1.1460653887927263,1.1339018626356745,-0.012163526157051852,0.012163526157051852,-1.06132915940032,570.2327955867494,599.4188706075953,29.18607502084592,29.18607502084592,5.118273667654362,327.28840925752615,328.70303295273965,1.4146236952134927,1.4146236952134927,0.4322254180716798,1.7422945006832276,1.823587890939171,0.0812933902559434,0.0812933902559434,4.665881125381778
s1_sit,qppg,qppg (slope-sum),mid_upslope,lipponen_tarvainen,1.0,100.0,True,False,589,613,0.9841512286143937,0.01870748299319728,0.0031510357206987146,588,4,25,0.9592169657422512,0.9932432432432432,0.9759336099585062,314.9999999999953,4.36851211072728,6.158095917465698,-0.053633217993061096,6.163196149469653,578,828.437908496732,832.8902229845626,4.452314487830563,4.452314487830563,0.5374349051589937,46.977980713169195,70.84345762622073,23.86547691305153,23.86547691305153,50.801410683795936,30.45299025358163,85.10797669780689,54.65498644422526,54.65498644422526,179.47329963039408,9.00163666121113,10.652920962199312,1.6512843009881824,1.6512843009881824,18.344267416432352,30.477600635297417,85.17960464006129,54.702004004763864,54.702004004763864,179.4826458268212,21.550918083514233,60.23107605977645,38.680157976262215,38.680157976262215,179.48264582682123,62.844405268340736,80.06127936498197,17.216874096641234,17.216874096641234,27.396033144281525,0.3429250064742197,0.7523121855846953,0.40938717911047556,0.40938717911047556,119.38096417044241,1.6764542772105453,1.3327780790754284,-0.34367619813511685,0.34367619813511685,-20.50018320254819,1.1460653887927263,0.9667553539491377,-0.17931003484358865,0.17931003484358865,-15.64570718189781,570.2327955867494,4485.283651948324,3915.050856361575,3915.050856361575,686.5706228511683,327.28840925752615,759.2166951911004,431.9282859335742,431.9282859335742,131.97176365439586,1.7422945006832276,5.907777951088583,4.165483450405356,4.165483450405356,239.08033049360446
s1_sit,terma,TERMA,mid_upslope,lipponen_tarvainen,1.0,100.0,True,False,612,613,0.9841512286143937,0.0016366612111292963,0.00037810302844921485,611,2,2,0.9967373572593801,0.9967373572593801,0.9967373572593801,314.00000000000585,5.0952380952388445,7.710590247863331,0.10673234811168142,7.716189235073882,609,828.437908496732,829.5539215686274,1.1160130718953951,1.1160130718953951,0.13471294112077653,46.977980713169195,51.51808702438172,4.540106311212526,4.540106311212526,9.664328356156465,30.45299025358163,38.9768070698674,8.52381681628577,8.52381681628577,27.990081582491786,9.00163666121113,11.292962356792144,2.2913256955810137,2.2913256955810137,25.454545454545443,30.477600635297417,39.00462489320612,8.527024257908703,8.527024257908703,27.978003780367114,21.550918083514233,27.580434759623667,6.029516676109434,6.029516676109434,27.978003780367125,62.844405268340736,67.43549658580174,4.591091317461007,4.591091317461007,7.305489323763036,0.3429250064742197,0.4089898667021992,0.06606486022797953,0.06606486022797953,19.26510431747885,1.6764542772105453,1.6518397234755766,-0.02461455373496868,0.02461455373496868,-1.468250823751953,1.1460653887927263,1.0702123578880338,-0.07585303090469253,0.07585303090469253,-6.618560480619406,570.2327955867494,877.5116649114733,307.2788693247239,307.2788693247239,53.8865655751253,327.28840925752615,504.3207195060808,177.03231024855467,177.03231024855467,54.090614039819904,1.7422945006832276,1.7399873353823068,-0.002307165300920788,0.002307165300920788,-0.13242108610318468
s1_sit,heartpy,HeartPy,mid_upslope,lipponen_tarvainen,1.0,100.0,True,False,611,613,0.9841512286143937,0.001639344262295082,0.01966956532014036,610,2,3,0.9951060358890701,0.9967320261437909,0.9959183673469387,314.0000000000104,5.559210526316565,12.259394893627011,0.43421052631578594,12.261790776615927,608,828.437908496732,829.9328968903437,1.4949883936117203,1.4949883936117203,0.18045871371633612,46.977980713169195,49.80483630431074,2.8268555911415447,2.8268555911415447,6.017405491311593,30.45299025358163,38.05095806725558,7.59796781367395,7.59796781367395,24.94982512523656,9.00163666121113,11.311475409836065,2.3098387486249354,2.3098387486249354,25.66020864381519,30.477600635297417,38.081258229262254,7.6036575939648365,7.6036575939648365,24.948347099078116,21.550918083514233,26.927515930027358,5.376597846513125,5.376597846513125,24.94834709907812,62.844405268340736,65.08419412143398,2.239788853093245,2.239788853093245,3.564022673982704,0.3429250064742197,0.4137335691640591,0.07080856268983943,0.07080856268983943,20.648410396738637,1.6764542772105453,1.724378559958914,0.047924282748368796,0.047924282748368796,2.858669240184115,1.1460653887927263,1.0711353966211048,-0.07492999217162155,0.07492999217162155,-6.538020684016411,570.2327955867494,815.6226840476754,245.38988846092604,245.38988846092604,43.03328225947239,327.28840925752615,397.10781982885703,69.81941057133088,69.81941057133088,21.33268658359167,1.7422945006832276,2.053907385654574,0.31161288497134665,0.31161288497134665,17.88520166074966
s1_sit,findpeaks,find_peaks baseline,mid_upslope,lipponen_tarvainen,1.0,100.0,True,False,613,613,0.9841512286143937,0.0016339869281045752,0.00014383173424627497,613,1,0,1.0,0.998371335504886,0.9991850040749797,314.00000000000585,5.1160130718962495,7.725795007423842,0.13888888888892845,7.730865131826553,612,828.437908496732,828.2006525285482,-0.2372559681838311,0.2372559681838311,-0.028638956009914052,46.977980713169195,48.79817578924255,1.8201950760733538,1.8201950760733538,3.8745706998068226,30.45299025358163,32.98484500494095,2.5318547513593224,2.5318547513593224,8.313977478981876,9.00163666121113,11.11111111111111,2.109474449899981,2.109474449899981,23.434343434343422,30.477600635297417,33.006977034122635,2.5293763988252174,2.5293763988252174,8.29913230077514,21.550918083514233,23.339457287296753,1.7885392037825198,1.7885392037825198,8.299132300775137,62.844405268340736,64.94454291355115,2.1001376452104097,2.1001376452104097,3.34180526690162,0.3429250064742197,0.3593751875098163,0.01645018103559659,0.01645018103559659,4.797019967930882,1.6764542772105453,1.7226565322520264,0.04620225504148112,0.04620225504148112,2.7559507986318077,1.1460653887927263,1.180820085261959,0.03475469646923268,0.03475469646923268,3.03252299642724,570.2327955867494,598.498413829949,28.265618243199583,28.265618243199583,4.956855947598605,327.28840925752615,330.046529945631,2.758120688104839,2.758120688104839,0.8427187184421853,1.7422945006832276,1.8133758713613515,0.07108137067812392,0.07108137067812392,4.079756358655205
s2_sit,msptdfast,MSPTDfast v2,mid_upslope,none,1.0,100.0,True,False,990,991,0.9951016628351869,0.0,0.02294311673955949,990,0,1,0.9989909182643795,1.0,0.999495204442201,234.15886216055213,2.75903524815756,3.318860401887974,0.006369729660233134,3.3205334466736507,989,496.8181818181818,496.8213343403781,0.0031525221962738215,0.0031525221962738215,0.0006345424365784454,17.9894720567605,19.083251846662886,1.093779789902385,1.093779789902385,6.080110558282554,4.648624180821078,5.869396455291478,1.2207722744704004,1.2207722744704004,26.260937150113467,0.0,0.0,0.0,0.0,,4.650954564424282,5.8723502315567,1.221395667132418,1.221395667132418,26.261182521003803,3.2887215114949355,4.152378670236136,0.8636571587412001,0.8636571587412001,26.261182521003803,25.22749532913968,26.666434959800924,1.4389396306612454,1.4389396306612454,5.703854512259727,0.13036258528987663,0.15571555314745886,0.02535296785758223,0.02535296785758223,19.448040096172463,0.745467018693734,0.8497665325336436,0.10429951383990965,0.10429951383990965,13.99116409236608,1.6151323746822592,1.5412477230907988,-0.0738846515914604,0.0738846515914604,-4.574526072885855,99.94805062404777,119.81888477651788,19.87083415247011,19.87083415247011,19.881162292212966,19.90885704317436,38.50340685075841,18.59454980758405,18.59454980758405,93.39837926034576,5.020280692522949,3.1119034541785693,-1.9083772383443796,1.9083772383443796,-38.01335732455473
s2_sit,msptd,MSPTD,mid_upslope,none,1.0,100.0,True,False,990,991,0.9951016628351869,0.0,0.8918769973112141,990,0,1,0.9989909182643795,1.0,0.999495204442201,234.15886216055213,2.75903524815756,3.3188604995207105,0.006369729660233134,3.320533544355964,989,496.8181818181818,496.8213343403781,0.0031525221962738215,0.0031525221962738215,0.0006345424365784454,17.9894720567605,19.08325184629241,1.093779789531908,1.093779789531908,6.0801105562231434,4.648624180821078,5.869396343962104,1.2207721631410262,1.2207721631410262,26.260934755224792,0.0,0.0,0.0,0.0,,4.650954564424282,5.872350120170586,1.2213955557463043,1.2213955557463043,26.26118012609514,3.2887215114949355,4.1523785914742595,0.863657079979324,0.863657079979324,26.261180126095145,25.22749532913968,26.666434971535125,1.4389396423954466,1.4389396423954466,5.703854558773267,0.13036258528987663,0.15571555012534233,0.025352964835465702,0.025352964835465702,19.44803777793328,0.745467018693734,0.8497665325336436,0.10429951383990965,0.10429951383990965,13.99116409236608,1.6151323746822592,1.5412477411916998,-0.0738846334905594,0.0738846334905594,-4.574524952178891,99.94805062404777,119.8188845981689,19.87083397412114,19.87083397412114,19.881162113771296,19.90885704317436,38.503407974282304,18.594550931107943,18.594550931107943,93.39838490368275,5.020280692522949,3.1119033587416443,-1.9083773337813046,1.9083773337813046,-38.013359225582406
s2_sit,qppg,qppg (slope-sum),mid_upslope,none,1.0,100.0,True,False,991,991,0.9951016628351869,0.0,0.004419737942910658,991,0,0,1.0,1.0,1.0,234.45150869761875,3.0053320356728817,3.8119909917628245,0.002768979996383648,3.813916693304738,990,496.8181818181818,496.8209507981782,0.0027689799964036865,0.0027689799964036865,0.0005573427257171189,17.9894720567605,19.165331057078042,1.1758590003175406,1.1758590003175406,6.536373033113271,4.648624180821078,6.548125946690146,1.8995017658690676,1.8995017658690676,40.86159026805996,0.0,0.0,0.0,0.0,,4.650954564424282,6.551415071677711,1.9004605072534293,1.9004605072534293,40.86173023039793,3.2887215114949355,4.632550023551062,1.3438285120561262,1.3438285120561262,40.86173023039794,25.22749532913968,26.705042769748513,1.4775474406088343,1.4775474406088343,5.8568931292285455,0.13036258528987663,0.1734709831207916,0.04310839783091497,0.04310839783091497,33.06807527256256,0.745467018693734,0.8767555443074964,0.13128852561376236,0.13128852561376236,17.611580703304146,1.6151323746822592,1.5122152658867538,-0.10291710879550542,0.10291710879550542,-6.3720541058284486,99.94805062404777,119.7960576003969,19.84800697634914,19.84800697634914,19.858323251352797,19.90885704317436,39.22511831165456,19.3162612684802,19.3162612684802,97.0234565780996,5.020280692522949,3.0540649144403758,-1.966215778082573,1.966215778082573,-39.16545505136783
s2_sit,terma,TERMA,mid_upslope,none,1.0,100.0,True,False,991,991,0.9951016628351869,0.0,0.0007395636173713977,991,0,0,1.0,1.0,1.0,234.19045941926385,2.7574598599511764,3.317402804214585,0.005151779505184559,3.3190755282636215,990,496.8181818181818,496.823333597687,0.00515177950518364,0.00515177950518364,0.0010369547036966156,17.9894720567605,19.07370538650957,1.0842333297490683,1.0842333297490683,6.0270436304527895,4.648624180821078,5.866437483056157,1.2178133022350792,1.2178133022350792,26.19728450536905,0.0,0.0,0.0,0.0,,4.650954564424282,5.869385940965132,1.2184313765408499,1.2184313765408499,26.19744741995073,3.2887215114949355,4.15028260025743,0.8615610887624947,0.8615610887624947,26.197447419950734,25.22749532913968,26.653097919017384,1.4256025898777054,1.4256025898777054,5.650987429699475,0.13036258528987663,0.15571482958069732,0.025352244290820697,0.025352244290820697,19.447485054432594,0.745467018693734,0.8516844736502427,0.1062174549565087,0.1062174549565087,14.248444571381748,1.6151323746822592,1.538948746369844,-0.07618362831241532,0.07618362831241532,-4.71686590564459,99.94805062404777,119.81888477651788,19.87083415247011,19.87083415247011,19.881162292212966,19.90885704317436,38.50340685075841,18.59454980758405,18.59454980758405,93.39837926034576,5.020280692522949,3.1119034541785693,-1.9083772383443796,1.9083772383443796,-38.01335732455473
s2_sit,heartpy,HeartPy,mid_upslope,none,1.0,100.0,True,False,991,991,0.9951016628351869,0.0,0.029861688991753666,991,0,0,1.0,1.0,1.0,234.19045941926385,2.7574598599511764,3.317402804214585,0.005151779505184559,3.3190755282636215,990,496.8181818181818,496.823333597687,0.00515177950518364,0.00515177950518364,0.0010369547036966156,17.9894720567605,19.07370538650957,1.0842333297490683,1.0842333297490683,6.0270436304527895,4.648624180821078,5.866437483056157,1.2178133022350792,1.2178133022350792,26.19728450536905,0.0,0.0,0.0,0.0,,4.650954564424282,5.869385940965132,1.2184313765408499,1.2184313765408499,26.19744741995073,3.2887215114949355,4.15028260025743,0.8615610887624947,0.8615610887624947,26.197447419950734,25.22749532913968,26.653097919017384,1.4256025898777054,1.4256025898777054,5.650987429699475,0.13036258528987663,0.15571482958069732,0.025352244290820697,0.025352244290820697,19.447485054432594,0.745467018693734,0.8516844736502427,0.1062174549565087,0.1062174549565087,14.248444571381748,1.6151323746822592,1.538948746369844,-0.07618362831241532,0.07618362831241532,-4.71686590564459,99.94805062404777,119.81888477651788,19.87083415247011,19.87083415247011,19.881162292212966,19.90885704317436,38.50340685075841,18.59454980758405,18.59454980758405,93.39837926034576,5.020280692522949,3.1119034541785693,-1.9083772383443796,1.9083772383443796,-38.01335732455473
s2_sit,findpeaks,find_peaks baseline,mid_upslope,none,1.0,100.0,True,False,991,991,0.9951016628351869,0.0,0.00015295727941624766,991,0,0,1.0,1.0,1.0,234.19045941926385,2.7574598599511764,3.317402804214585,0.005151779505184559,3.3190755282636215,990,496.8181818181818,496.823333597687,0.00515177950518364,0.00515177950518364,0.0010369547036966156,17.9894720567605,19.07370538650957,1.0842333297490683,1.0842333297490683,6.0270436304527895,4.648624180821078,5.866437483056157,1.2178133022350792,1.2178133022350792,26.19728450536905,0.0,0.0,0.0,0.0,,4.650954564424282,5.869385940965132,1.2184313765408499,1.2184313765408499,26.19744741995073,3.2887215114949355,4.15028260025743,0.8615610887624947,0.8615610887624947,26.197447419950734,25.22749532913968,26.653097919017384,1.4256025898777054,1.4256025898777054,5.650987429699475,0.13036258528987663,0.15571482958069732,0.025352244290820697,0.025352244290820697,19.447485054432594,0.745467018693734,0.8516844736502427,0.1062174549565087,0.1062174549565087,14.248444571381748,1.6151323746822592,1.538948746369844,-0.07618362831241532,0.07618362831241532,-4.71686590564459,99.94805062404777,119.81888477651788,19.87083415247011,19.87083415247011,19.881162292212966,19.90885704317436,38.50340685075841,18.59454980758405,18.59454980758405,93.39837926034576,5.020280692522949,3.1119034541785693,-1.9083772383443796,1.9083772383443796,-38.01335732455473
s2_sit,msptdfast,MSPTDfast v2,mid_upslope,median_mad,1.0,100.0,True,False,990,991,0.9951016628351869,0.0,0.02247960244665694,990,0,1,0.9989909182643795,1.0,0.999495204442201,234.15886216055213,2.75903524815756,3.318860401887974,0.006369729660233134,3.3205334466736507,989,496.8181818181818,496.8213343403781,0.0031525221962738215,0.0031525221962738215,0.0006345424365784454,17.9894720567605,19.083251846662886,1.093779789902385,1.093779789902385,6.080110558282554,4.648624180821078,5.869396455291478,1.2207722744704004,1.2207722744704004,26.260937150113467,0.0,0.0,0.0,0.0,,4.650954564424282,5.8723502315567,1.221395667132418,1.221395667132418,26.261182521003803,3.2887215114949355,4.152378670236136,0.8636571587412001,0.8636571587412001,26.261182521003803,25.22749532913968,26.666434959800924,1.4389396306612454,1.4389396306612454,5.703854512259727,0.13036258528987663,0.15571555314745886,0.02535296785758223,0.02535296785758223,19.448040096172463,0.745467018693734,0.8497665325336436,0.10429951383990965,0.10429951383990965,13.99116409236608,1.6151323746822592,1.5412477230907988,-0.0738846515914604,0.0738846515914604,-4.574526072885855,99.94805062404777,119.81888477651788,19.87083415247011,19.87083415247011,19.881162292212966,19.90885704317436,38.50340685075841,18.59454980758405,18.59454980758405,93.39837926034576,5.020280692522949,3.1119034541785693,-1.9083772383443796,1.9083772383443796,-38.01335732455473
s2_sit,msptd,MSPTD,mid_upslope,median_mad,1.0,100.0,True,False,990,991,0.9951016628351869,0.0,0.9044883755884234,990,0,1,0.9989909182643795,1.0,0.999495204442201,234.15886216055213,2.75903524815756,3.3188604995207105,0.006369729660233134,3.320533544355964,989,496.8181818181818,496.8213343403781,0.0031525221962738215,0.0031525221962738215,0.0006345424365784454,17.9894720567605,19.08325184629241,1.093779789531908,1.093779789531908,6.0801105562231434,4.648624180821078,5.869396343962104,1.2207721631410262,1.2207721631410262,26.260934755224792,0.0,0.0,0.0,0.0,,4.650954564424282,5.872350120170586,1.2213955557463043,1.2213955557463043,26.26118012609514,3.2887215114949355,4.1523785914742595,0.863657079979324,0.863657079979324,26.261180126095145,25.22749532913968,26.666434971535125,1.4389396423954466,1.4389396423954466,5.703854558773267,0.13036258528987663,0.15571555012534233,0.025352964835465702,0.025352964835465702,19.44803777793328,0.745467018693734,0.8497665325336436,0.10429951383990965,0.10429951383990965,13.99116409236608,1.6151323746822592,1.5412477411916998,-0.0738846334905594,0.0738846334905594,-4.574524952178891,99.94805062404777,119.8188845981689,19.87083397412114,19.87083397412114,19.881162113771296,19.90885704317436,38.503407974282304,18.594550931107943,18.594550931107943,93.39838490368275,5.020280692522949,3.1119033587416443,-1.9083773337813046,1.9083773337813046,-38.013359225582406
s2_sit,qppg,qppg (slope-sum),mid_upslope,median_mad,1.0,100.0,True,False,991,991,0.9951016628351869,0.0,0.007188663152335556,991,0,0,1.0,1.0,1.0,234.45150869761875,3.0053320356728817,3.8119909917628245,0.002768979996383648,3.813916693304738,990,496.8181818181818,496.8209507981782,0.0027689799964036865,0.0027689799964036865,0.0005573427257171189,17.9894720567605,19.165331057078042,1.1758590003175406,1.1758590003175406,6.536373033113271,4.648624180821078,6.548125946690146,1.8995017658690676,1.8995017658690676,40.86159026805996,0.0,0.0,0.0,0.0,,4.650954564424282,6.551415071677711,1.9004605072534293,1.9004605072534293,40.86173023039793,3.2887215114949355,4.632550023551062,1.3438285120561262,1.3438285120561262,40.86173023039794,25.22749532913968,26.705042769748513,1.4775474406088343,1.4775474406088343,5.8568931292285455,0.13036258528987663,0.1734709831207916,0.04310839783091497,0.04310839783091497,33.06807527256256,0.745467018693734,0.8767555443074964,0.13128852561376236,0.13128852561376236,17.611580703304146,1.6151323746822592,1.5122152658867538,-0.10291710879550542,0.10291710879550542,-6.3720541058284486,99.94805062404777,119.7960576003969,19.84800697634914,19.84800697634914,19.858323251352797,19.90885704317436,39.22511831165456,19.3162612684802,19.3162612684802,97.0234565780996,5.020280692522949,3.0540649144403758,-1.966215778082573,1.966215778082573,-39.16545505136783
s2_sit,terma,TERMA,mid_upslope,median_mad,1.0,100.0,True,False,991,991,0.9951016628351869,0.0,0.0004943177669150993,991,0,0,1.0,1.0,1.0,234.19045941926385,2.7574598599511764,3.317402804214585,0.005151779505184559,3.3190755282636215,990,496.8181818181818,496.823333597687,0.00515177950518364,0.00515177950518364,0.0010369547036966156,17.9894720567605,19.07370538650957,1.0842333297490683,1.0842333297490683,6.0270436304527895,4.648624180821078,5.866437483056157,1.2178133022350792,1.2178133022350792,26.19728450536905,0.0,0.0,0.0,0.0,,4.650954564424282,5.869385940965132,1.2184313765408499,1.2184313765408499,26.19744741995073,3.2887215114949355,4.15028260025743,0.8615610887624947,0.8615610887624947,26.197447419950734,25.22749532913968,26.653097919017384,1.4256025898777054,1.4256025898777054,5.650987429699475,0.13036258528987663,0.15571482958069732,0.025352244290820697,0.025352244290820697,19.447485054432594,0.745467018693734,0.8516844736502427,0.1062174549565087,0.1062174549565087,14.248444571381748,1.6151323746822592,1.538948746369844,-0.07618362831241532,0.07618362831241532,-4.71686590564459,99.94805062404777,119.81888477651788,19.87083415247011,19.87083415247011,19.881162292212966,19.90885704317436,38.50340685075841,18.59454980758405,18.59454980758405,93.39837926034576,5.020280692522949,3.1119034541785693,-1.9083772383443796,1.9083772383443796,-38.01335732455473
s2_sit,heartpy,HeartPy,mid_upslope,median_mad,1.0,100.0,True,False,991,991,0.9951016628351869,0.0,0.02706620066114993,991,0,0,1.0,1.0,1.0,234.19045941926385,2.7574598599511764,3.317402804214585,0.005151779505184559,3.3190755282636215,990,496.8181818181818,496.823333597687,0.00515177950518364,0.00515177950518364,0.0010369547036966156,17.9894720567605,19.07370538650957,1.0842333297490683,1.0842333297490683,6.0270436304527895,4.648624180821078,5.866437483056157,1.2178133022350792,1.2178133022350792,26.19728450536905,0.0,0.0,0.0,0.0,,4.650954564424282,5.869385940965132,1.2184313765408499,1.2184313765408499,26.19744741995073,3.2887215114949355,4.15028260025743,0.8615610887624947,0.8615610887624947,26.197447419950734,25.22749532913968,26.653097919017384,1.4256025898777054,1.4256025898777054,5.650987429699475,0.13036258528987663,0.15571482958069732,0.025352244290820697,0.025352244290820697,19.447485054432594,0.745467018693734,0.8516844736502427,0.1062174549565087,0.1062174549565087,14.248444571381748,1.6151323746822592,1.538948746369844,-0.07618362831241532,0.07618362831241532,-4.71686590564459,99.94805062404777,119.81888477651788,19.87083415247011,19.87083415247011,19.881162292212966,19.90885704317436,38.50340685075841,18.59454980758405,18.59454980758405,93.39837926034576,5.020280692522949,3.1119034541785693,-1.9083772383443796,1.9083772383443796,-38.01335732455473
s2_sit,findpeaks,find_peaks baseline,mid_upslope,median_mad,1.0,100.0,True,False,991,991,0.9951016628351869,0.0,0.00015420014079642913,991,0,0,1.0,1.0,1.0,234.19045941926385,2.7574598599511764,3.317402804214585,0.005151779505184559,3.3190755282636215,990,496.8181818181818,496.823333597687,0.00515177950518364,0.00515177950518364,0.0010369547036966156,17.9894720567605,19.07370538650957,1.0842333297490683,1.0842333297490683,6.0270436304527895,4.648624180821078,5.866437483056157,1.2178133022350792,1.2178133022350792,26.19728450536905,0.0,0.0,0.0,0.0,,4.650954564424282,5.869385940965132,1.2184313765408499,1.2184313765408499,26.19744741995073,3.2887215114949355,4.15028260025743,0.8615610887624947,0.8615610887624947,26.197447419950734,25.22749532913968,26.653097919017384,1.4256025898777054,1.4256025898777054,5.650987429699475,0.13036258528987663,0.15571482958069732,0.025352244290820697,0.025352244290820697,19.447485054432594,0.745467018693734,0.8516844736502427,0.1062174549565087,0.1062174549565087,14.248444571381748,1.6151323746822592,1.538948746369844,-0.07618362831241532,0.07618362831241532,-4.71686590564459,99.94805062404777,119.81888477651788,19.87083415247011,19.87083415247011,19.881162292212966,19.90885704317436,38.50340685075841,18.59454980758405,18.59454980758405,93.39837926034576,5.020280692522949,3.1119034541785693,-1.9083772383443796,1.9083772383443796,-38.01335732455473
s2_sit,msptdfast,MSPTDfast v2,mid_upslope,lipponen_tarvainen,1.0,100.0,True,False,990,991,0.9951016628351869,0.0,0.027470849614020895,990,0,1,0.9989909182643795,1.0,0.999495204442201,234.00000000000574,2.760364004043972,3.35285821958554,0.006066734074812995,3.35454908962852,989,496.8181818181818,496.82103134479274,0.0028495266109302975,0.0028495266109302975,0.0005735552190344606,17.9894720567605,19.0897974570566,1.1003254002961,1.1003254002961,6.11649634199573,4.648624180821078,5.908718597597268,1.26009441677619,1.26009441677619,27.106824896170075,0.0,0.0,0.0,0.0,,4.650954564424282,5.9116889080349075,1.2607343436106255,1.2607343436106255,27.10700193147738,3.2887215114949355,4.18019531513678,0.8914738036418446,0.8914738036418446,27.107001931477388,25.22749532913968,26.67145854710983,1.4439632179701505,1.4439632179701505,5.723767655611308,0.13036258528987663,0.15672916079011187,0.026366575500235245,0.026366575500235245,20.225569661422444,0.745467018693734,0.9290648567347047,0.18359783804097074,0.18359783804097074,24.628566178914973,1.6151323746822592,1.5393332557824133,-0.07579911889984592,0.07579911889984592,-4.693059224619758,99.94805062404777,119.87365928156653,19.925608657518765,19.925608657518765,19.935965267065058,19.90885704317436,38.54597279798683,18.637115754812466,18.637115754812466,93.61218333325718,5.020280692522949,3.109888026689711,-1.9103926658332377,1.9103926658332377,-38.05350303775878
s2_sit,msptd,MSPTD,mid_upslope,lipponen_tarvainen,1.0,100.0,True,False,990,991,0.9951016628351869,0.0,0.9133386960507883,990,0,1,0.9989909182643795,1.0,0.999495204442201,234.00000000000574,2.760364004043972,3.35285821958554,0.006066734074812995,3.35454908962852,989,496.8181818181818,496.82103134479274,0.0028495266109302975,0.0028495266109302975,0.0005735552190344606,17.9894720567605,19.0897974570566,1.1003254002961,1.1003254002961,6.11649634199573,4.648624180821078,5.908718597597268,1.26009441677619,1.26009441677619,27.106824896170075,0.0,0.0,0.0,0.0,,4.650954564424282,5.9116889080349075,1.2607343436106255,1.2607343436106255,27.10700193147738,3.2887215114949355,4.18019531513678,0.8914738036418446,0.8914738036418446,27.107001931477388,25.22749532913968,26.67145854710983,1.4439632179701505,1.4439632179701505,5.723767655611308,0.13036258528987663,0.15672916079011187,0.026366575500235245,0.026366575500235245,20.225569661422444,0.745467018693734,0.9290648567347047,0.18359783804097074,0.18359783804097074,24.628566178914973,1.6151323746822592,1.5393332557824133,-0.07579911889984592,0.07579911889984592,-4.693059224619758,99.94805062404777,119.87365928156653,19.925608657518765,19.925608657518765,19.935965267065058,19.90885704317436,38.54597279798683,18.637115754812466,18.637115754812466,93.61218333325718,5.020280692522949,3.109888026689711,-1.9103926658332377,1.9103926658332377,-38.05350303775878
s2_sit,qppg,qppg (slope-sum),mid_upslope,lipponen_tarvainen,1.0,100.0,True,False,991,991,0.9951016628351869,0.0,0.0046300252633715575,991,0,0,1.0,1.0,1.0,234.9999999999298,2.9848484848481824,3.780732653062565,0.0030303030303168105,3.782642346752194,990,496.8181818181818,496.8212121212121,0.0030303030303002743,0.0030303030303002743,0.0006099420555041724,17.9894720567605,19.159047857561863,1.1695758008013613,1.1695758008013613,6.501445940776405,4.648624180821078,6.433685994060867,1.785061813239789,1.785061813239789,38.39978763188589,0.0,0.0,0.0,0.0,,4.650954564424282,6.436918110617743,1.7859635461934609,1.7859635461934609,38.39993535637853,3.2887215114949355,4.551588445960306,1.2628669344653702,1.2628669344653702,38.399935356378535,25.22749532913968,26.70994706537795,1.4824517362382714,1.4824517362382714,5.876333408833999,0.13036258528987663,0.1704079920046034,0.04004540671472678,0.04004540671472678,30.718481553339167,0.745467018693734,0.9543396542121744,0.20887263551844037,0.20887263551844037,28.0190310611519,1.6151323746822592,1.5147124782234598,-0.10041989645879945,0.10041989645879945,-6.217440627958113,99.94805062404777,119.98966602533437,20.041615401286606,20.041615401286606,20.0520323069358,19.90885704317436,39.238917450415855,19.330060407241493,19.330060407241493,97.0927681349176,5.020280692522949,3.0579249842190213,-1.9623557083039276,1.9623557083039276,-39.088565530341754
s2_sit,terma,TERMA,mid_upslope,lipponen_tarvainen,1.0,100.0,True,False,991,991,0.9951016628351869,0.0,0.000490101784990167,991,0,0,1.0,1.0,1.0,234.00000000000574,2.7585858585853176,3.351315134586464,0.005050505050518888,3.353005193791906,990,496.8181818181818,496.82323232323233,0.005050505050519405,0.005050505050519405,0.0010165700925107678,17.9894720567605,19.080269632219164,1.0907975754586623,1.0907975754586623,6.06353300428701,4.648624180821078,5.905730623399828,1.25710644257875,1.25710644257875,27.042548368724216,0.0,0.0,0.0,0.0,,4.650954564424282,5.908696427671396,1.257741863247114,1.257741863247114,27.042660723192927,3.2887215114949355,4.1780793119791735,0.889357800484238,0.889357800484238,27.042660723192935,25.22749532913968,26.658151318858952,1.4306559897192734,1.4306559897192734,5.671018747813449,0.13036258528987663,0.15672802145974193,0.02636543616986531,0.02636543616986531,20.224695691051725,0.745467018693734,0.9305285145369274,0.18506149584319342,0.18506149584319342,24.824907232981648,1.6151323746822592,1.537156854270568,-0.0779755204116912,0.0779755204116912,-4.827809883201129,99.94805062404777,119.87365928156653,19.925608657518765,19.925608657518765,19.935965267065058,19.90885704317436,38.545972797986835,18.637115754812474,18.637115754812474,93.6121833332572,5.020280692522949,3.10988802668971,-1.9103926658332386,1.9103926658332386,-38.053503037758794
s2_sit,heartpy,HeartPy,mid_upslope,lipponen_tarvainen,1.0,100.0,True,False,991,991,0.9951016628351869,0.0,0.029676514788562394,991,0,0,1.0,1.0,1.0,234.00000000000574,2.7585858585853176,3.351315134586464,0.005050505050518888,3.353005193791906,990,496.8181818181818,496.82323232323233,0.005050505050519405,0.005050505050519405,0.0010165700925107678,17.9894720567605,19.080269632219164,1.0907975754586623,1.0907975754586623,6.06353300428701,4.648624180821078,5.905730623399828,1.25710644257875,1.25710644257875,27.042548368724216,0.0,0.0,0.0,0.0,,4.650954564424282,5.908696427671396,1.257741863247114,1.257741863247114,27.042660723192927,3.2887215114949355,4.1780793119791735,0.889357800484238,0.889357800484238,27.042660723192935,25.22749532913968,26.658151318858952,1.4306559897192734,1.4306559897192734,5.671018747813449,0.13036258528987663,0.15672802145974193,0.02636543616986531,0.02636543616986531,20.224695691051725,0.745467018693734,0.9305285145369274,0.18506149584319342,0.18506149584319342,24.824907232981648,1.6151323746822592,1.537156854270568,-0.0779755204116912,0.0779755204116912,-4.827809883201129,99.94805062404777,119.87365928156653,19.925608657518765,19.925608657518765,19.935965267065058,19.90885704317436,38.545972797986835,18.637115754812474,18.637115754812474,93.6121833332572,5.020280692522949,3.10988802668971,-1.9103926658332386,1.9103926658332386,-38.053503037758794
s2_sit,findpeaks,find_peaks baseline,mid_upslope,lipponen_tarvainen,1.0,100.0,True,False,991,991,0.9951016628351869,0.0,0.00015126357617155497,991,0,0,1.0,1.0,1.0,234.00000000000574,2.7585858585853176,3.351315134586464,0.005050505050518888,3.353005193791906,990,496.8181818181818,496.82323232323233,0.005050505050519405,0.005050505050519405,0.0010165700925107678,17.9894720567605,19.080269632219164,1.0907975754586623,1.0907975754586623,6.06353300428701,4.648624180821078,5.905730623399828,1.25710644257875,1.25710644257875,27.042548368724216,0.0,0.0,0.0,0.0,,4.650954564424282,5.908696427671396,1.257741863247114,1.257741863247114,27.042660723192927,3.2887215114949355,4.1780793119791735,0.889357800484238,0.889357800484238,27.042660723192935,25.22749532913968,26.658151318858952,1.4306559897192734,1.4306559897192734,5.671018747813449,0.13036258528987663,0.15672802145974193,0.02636543616986531,0.02636543616986531,20.224695691051725,0.745467018693734,0.9305285145369274,0.18506149584319342,0.18506149584319342,24.824907232981648,1.6151323746822592,1.537156854270568,-0.0779755204116912,0.0779755204116912,-4.827809883201129,99.94805062404777,119.87365928156653,19.925608657518765,19.925608657518765,19.935965267065058,19.90885704317436,38.545972797986835,18.637115754812474,18.637115754812474,93.6121833332572,5.020280692522949,3.10988802668971,-1.9103926658332386,1.9103926658332386,-38.053503037758794
s3_sit,msptdfast,MSPTDfast v2,mid_upslope,none,1.0,100.0,True,False,603,603,0.9953320956006322,0.0,0.030663463999274693,602,1,1,0.9983416252072969,0.9983416252072969,0.9983416252072969,289.24661553110786,4.919892123916876,6.0847888640892185,0.01622562954778323,6.089835758861297,601,815.7774086378738,815.9541181953628,0.17670955748894812,0.17670955748894812,0.02166149192388215,61.9273119712334,64.10188358198448,2.17457161075108,2.17457161075108,3.5114903933844515,38.473190094833306,42.187044715340946,3.7138546205076395,3.7138546205076395,9.653097680107336,19.30116472545757,24.126455906821963,4.825291181364392,4.825291181364392,24.999999999999996,38.504571690160056,42.22119837485794,3.7166266846978857,3.7166266846978857,9.652429624733832,27.22684374879574,29.854895680684493,2.628051931888752,2.628051931888752,9.652429624733834,83.23871043837475,85.59665975616122,2.3579493177864634,2.3579493177864634,2.832755703888705,0.3270935314279401,0.3487857559597768,0.021692224531836668,0.021692224531836668,6.631810918772493,1.4540556028720704,1.5080329362718567,0.05397733339978639,0.05397733339978639,3.712191837311422,1.077286974252094,1.0422754342906169,-0.03501153996147721,0.03501153996147721,-3.249973386690576,901.0824037873131,943.9306667292743,42.84826294196125,42.84826294196125,4.755199165122632,679.6120627362407,836.5816727899504,156.96961005370974,156.96961005370974,23.096942897352616,1.3258775898700104,1.128318605858674,-0.1975589840113363,0.1975589840113363,-14.90024309338429
s3_sit,msptd,MSPTD,mid_upslope,none,1.0,100.0,True,False,603,603,0.9953320956006322,0.0,0.9098594672334182,602,1,1,0.9983416252072969,0.9983416252072969,0.9983416252072969,289.24661553110786,4.9113545549210365,6.077764086512961,0.01622562954778323,6.082805104715499,601,815.7774086378738,815.9541181953628,0.17670955748894812,0.17670955748894812,0.02166149192388215,61.9273119712334,64.1089376761083,2.1816257048748966,2.1816257048748966,3.5228813191315487,38.473190094833306,42.2053475666454,3.7321574718120942,3.7321574718120942,9.700670681616542,19.30116472545757,24.292845257903494,4.991680532445923,4.991680532445923,25.86206896551724,38.504571690160056,42.23951690047228,3.734945210312226,3.734945210312226,9.700004561449779,27.22684374879574,29.86784883436773,2.64100508557199,2.64100508557199,9.700004561449777,83.23871043837475,85.60270665069903,2.363996212324281,2.363996212324281,2.8400202260154552,0.3270935314279401,0.3489124351668363,0.021818903738896167,0.021818903738896167,6.670539659908545,1.4540556028720704,1.510223697624968,0.056168094752897746,0.056168094752897746,3.8628574204420905,1.077286974252094,1.0419999167242415,-0.03528705752785255,0.03528705752785255,-3.2755485187547704,901.0824037873131,943.9993064851375,42.91690269782441,42.91690269782441,4.762816643343786,679.6120627362407,837.2706164748292,157.65855373858858,157.65855373858858,23.198315978063548,1.3258775898700104,1.1274721552509144,-0.198405434619096,0.198405434619096,-14.964083874330187
s3_sit,qppg,qppg (slope-sum),mid_upslope,none,1.0,100.0,True,False,603,603,0.9953320956006322,0.0,0.0031336507560760516,602,1,1,0.9983416252072969,0.9983416252072969,0.9983416252072969,289.277729039109,4.920297472667524,6.0840399309886966,0.01544447057149916,6.089088234082671,601,815.7774086378738,815.9710902133436,0.19368157546978182,0.19368157546978182,0.023741963606613882,61.9273119712334,64.14342304501872,2.2161110737853207,2.2161110737853207,3.578568168459747,38.473190094833306,42.144390367634685,3.6712002728013786,3.6712002728013786,9.542229962610758,19.30116472545757,24.126455906821963,4.825291181364392,4.825291181364392,24.999999999999996,38.504571690160056,42.178367075962804,3.673795385802748,3.673795385802748,9.541192706583452,27.22684374879574,29.82460937878871,2.5977656299929706,2.5977656299929706,9.541192706583448,83.23871043837475,85.66942345590488,2.430713017530124,2.430713017530124,2.9201714018980227,0.3270935314279401,0.3481359880300795,0.02104245660213938,0.02104245660213938,6.433161949206908,1.4540556028720704,1.5058438215850625,0.05178821871299211,0.05178821871299211,3.561639500628402,1.077286974252094,1.042898348762217,-0.03438862548987709,0.03438862548987709,-3.1921508671123937,901.0824037873131,944.1752062440328,43.09280245671971,43.09280245671971,4.782337583732366,679.6120627362407,836.0091692574492,156.39710652120857,156.39710652120857,23.012703142955647,1.3258775898700104,1.1293837926235397,-0.19649379724647065,0.19649379724647065,-14.819904850019752
s3_sit,terma,TERMA,mid_upslope,none,1.0,100.0,True,False,603,603,0.9953320956006322,0.0,0.00047221398401128215,602,1,1,0.9983416252072969,0.9983416252072969,0.9983416252072969,289.24661553110786,4.910689792397963,6.077773248002884,0.01622562954778342,6.082814273869492,601,815.7774086378738,815.9541181953628,0.17670955748894812,0.17670955748894812,0.02166149192388215,61.9273119712334,64.10626404118386,2.178952069950462,2.178952069950462,3.5185639430993443,38.473190094833306,42.19993346483949,3.726743370006183,3.726743370006183,9.686598280049202,19.30116472545757,24.292845257903494,4.991680532445923,4.991680532445923,25.86206896551724,38.504571690160056,42.23409816214282,3.7295264719827657,3.7295264719827657,9.685931587536281,27.22684374879574,29.864017207749495,2.637173458953754,2.637173458953754,9.685931587536281,83.23871043837475,85.60003887178561,2.3613284334108613,2.3613284334108613,2.8368152521524896,0.3270935314279401,0.34887854726889483,0.021785015840954713,0.021785015840954713,6.660179351713665,1.4540556028720704,1.5083051562272605,0.054249553355190105,0.054249553355190105,3.730913264116974,1.077286974252094,1.0421975163280908,-0.03508945792400331,0.03508945792400331,-3.257206182072715,901.0824037873131,943.941382224135,42.858978436821985,42.858978436821985,4.756388345470143,679.6120627362407,836.9243436746516,157.31228093841094,157.31228093841094,23.14736443980163,1.3258775898700104,1.1278694297259988,-0.19800816014401157,0.19800816014401157,-14.934120740620134
s3_sit,heartpy,HeartPy,mid_upslope,none,1.0,100.0,True,False,592,603,0.9953320956006322,0.0,0.01614203998417494,591,1,12,0.9800995024875622,0.9983108108108109,0.9891213389121339,289.268057045471,4.945584605349522,6.102371358854778,-0.10052147830129379,6.106819252039662,579,815.7774086378738,831.1410814781867,15.363672840312915,15.363672840312915,1.8833167819596852,61.9273119712334,149.73231202807767,87.80500005684428,87.80500005684428,141.78719738010207,38.473190094833306,191.1047432441401,152.6315531493068,152.6315531493068,396.72185429147504,19.30116472545757,26.440677966101696,7.139513240644124,7.139513240644124,36.990064289888956,38.504571690160056,191.26667636361952,152.76210467345948,152.76210467345948,396.73757678104033,27.22684374879574,135.24596387172812,108.01912012293238,108.01912012293238,396.73757678104033,83.23871043837475,162.935753556285,79.69704311791024,79.69704311791024,95.74516796114163,0.3270935314279401,0.8300570066410156,0.5029634752130754,0.5029634752130754,153.7674783776273,1.4540556028720704,0.8924493039003615,-0.5616062989717089,0.5616062989717089,-38.623440387177524,1.077286974252094,0.5783175764368612,-0.49896939781523286,0.49896939781523286,-46.31722184904743,901.0824037873131,8369.016231448262,7467.933827660949,7467.933827660949,828.7736833249318,679.6120627362407,9712.124035125209,9032.51197238897,9032.51197238897,1329.0688125844101,1.3258775898700104,0.8617081290540137,-0.46416946081599664,0.46416946081599664,-35.00847019078918
s3_sit,findpeaks,find_peaks baseline,mid_upslope,none,1.0,100.0,True,False,603,603,0.9953320956006322,0.0,0.00013160321597461338,602,1,1,0.9983416252072969,0.9983416252072969,0.9983416252072969,289.24661553110786,4.910689792397963,6.077773248002884,0.01622562954778342,6.082814273869492,601,815.7774086378738,815.9541181953628,0.17670955748894812,0.17670955748894812,0.02166149192388215,61.9273119712334,64.10626404118386,2.178952069950462,2.178952069950462,3.5185639430993443,38.473190094833306,42.19993346483949,3.726743370006183,3.726743370006183,9.686598280049202,19.30116472545757,24.292845257903494,4.991680532445923,4.991680532445923,25.86206896551724,38.504571690160056,42.23409816214282,3.7295264719827657,3.7295264719827657,9.685931587536281,27.22684374879574,29.864017207749495,2.637173458953754,2.637173458953754,9.685931587536281,83.23871043837475,85.60003887178561,2.3613284334108613,2.3613284334108613,2.8368152521524896,0.3270935314279401,0.34887854726889483,0.021785015840954713,0.021785015840954713,6.660179351713665,1.4540556028720704,1.5083051562272605,0.054249553355190105,0.054249553355190105,3.730913264116974,1.077286974252094,1.0421975163280908,-0.03508945792400331,0.03508945792400331,-3.257206182072715,901.0824037873131,943.941382224135,42.858978436821985,42.858978436821985,4.756388345470143,679.6120627362407,836.9243436746516,157.31228093841094,157.31228093841094,23.14736443980163,1.3258775898700104,1.1278694297259988,-0.19800816014401157,0.19800816014401157,-14.934120740620134
s3_sit,msptdfast,MSPTDfast v2,mid_upslope,median_mad,1.0,100.0,True,False,603,603,0.9953320956006322,0.0016611295681063123,0.021918882465026483,602,1,1,0.9983416252072969,0.9983416252072969,0.9983416252072969,289.24661553110786,4.919892123916876,6.0847888640892185,0.01622562954778323,6.089835758861297,601,815.7774086378738,816.016518689296,0.2391100514222444,0.2391100514222444,0.029310697855864026,61.9273119712334,64.13697771535034,2.20966574411694,2.20966574411694,3.56816027335948,38.473190094833306,42.17522441469009,3.7020343198567858,3.7020343198567858,9.622374205860158,19.30116472545757,24.166666666666668,4.8655019412090965,4.8655019412090965,25.208333333333336,38.504571690160056,42.20942327988449,3.7048515897244343,3.7048515897244343,9.621848593815727,27.22684374879574,29.84656943117965,2.6197256823839083,2.6197256823839083,9.621848593815729,83.23871043837475,85.6521226480025,2.413412209627751,2.413412209627751,2.899386832061154,0.3270935314279401,0.3484626943086705,0.021369162880730375,0.021369162880730375,6.533043557126436,1.4540556028720704,1.5044863111144193,0.050430708242348965,0.050430708242348965,3.4682792145456847,1.077286974252094,1.0237287246837186,-0.053558249568375516,0.053558249568375516,-4.971586109222039,901.0824037873131,941.5902981481026,40.50789436078958,40.50789436078958,4.495470579664194,679.6120627362407,830.7944660288133,151.18240329257264,151.18240329257264,22.24539727618798,1.3258775898700104,1.1333613025239466,-0.19251628734606374,0.19251628734606374,-14.51991411702932
s3_sit,msptd,MSPTD,mid_upslope,median_mad,1.0,100.0,True,False,603,603,0.9953320956006322,0.0016611295681063123,0.8971070205448166,602,1,1,0.9983416252072969,0.9983416252072969,0.9983416252072969,289.24661553110786,4.9113545549210365,6.077764086512961,0.01622562954778323,6.082805104715499,601,815.7774086378738,816.016518689296,0.2391100514222444,0.2391100514222444,0.029310697855864026,61.9273119712334,64.14403969982087,2.2167277285874647,2.2167277285874647,3.5795639404099817,38.473190094833306,42.19356290011128,3.720372805277975,3.720372805277975,9.670039828014149,19.30116472545757,24.333333333333336,5.032168607875764,5.032168607875764,26.071839080459778,38.504571690160056,42.227777497296714,3.723205807136658,3.723205807136658,9.669516225493123,27.22684374879574,29.859547822775205,2.6327040739794647,2.6327040739794647,9.669516225493126,83.23871043837475,85.6581756859425,2.419465247567743,2.419465247567743,2.906658734650843,0.3270935314279401,0.3485895839324477,0.02149605250450759,0.02149605250450759,6.571836627482573,1.4540556028720704,1.5066707238285448,0.05261512095647447,0.05261512095647447,3.6185081817055944,1.077286974252094,1.023260561202839,-0.05402641304925515,0.05402641304925515,-5.0150437479078365,901.0824037873131,941.6590713065915,40.57666751927843,40.57666751927843,4.503102862594123,679.6120627362407,831.4834621036201,151.87139936737947,151.87139936737947,22.34677806569793,1.3258775898700104,1.1325048713828072,-0.19337271848720317,0.19337271848720317,-14.584507647207577
s3_sit,qppg,qppg (slope-sum),mid_upslope,median_mad,1.0,100.0,True,False,603,603,0.9953320956006322,0.0016611295681063123,0.0031469841431250073,602,1,1,0.9983416252072969,0.9983416252072969,0.9983416252072969,289.277729039109,4.920297472667524,6.0840399309886966,0.01544447057149916,6.089088234082671,601,815.7774086378738,816.0328329359368,0.2554242980629624,0.2554242980629624,0.03131053831086735,61.9273119712334,64.17894725160485,2.2516352803714526,2.2516352803714526,3.635932529119602,38.473190094833306,42.13406706533522,3.660876970501917,3.660876970501917,9.51539750532293,19.30116472545757,24.166666666666668,4.8655019412090965,4.8655019412090965,25.208333333333336,38.504571690160056,42.168089697272734,3.6635180071126783,3.6635180071126783,9.514501385945556,27.22684374879574,29.81734217462414,2.5904984258284003,2.5904984258284003,9.51450138594555,83.23871043837475,85.725145939158,2.4864355007832444,2.4864355007832444,2.9871143938781475,0.3270935314279401,0.3478249217071792,0.020731390279239093,0.020731390279239093,6.3380618347098965,1.4540556028720704,1.5006882523405949,0.04663264946852452,0.04663264946852452,3.2070747072130583,1.077286974252094,1.0240141479178402,-0.0532728263342539,0.0532728263342539,-4.94509147585661,901.0824037873131,941.865925127062,40.78352133974897,40.78352133974897,4.526059011732218,679.6120627362407,830.3167416154064,150.70467887916573,150.70467887916573,22.17510358371238,1.3258775898700104,1.1343453382556556,-0.19153225161435472,0.19153225161435472,-14.445696426103154
s3_sit,terma,TERMA,mid_upslope,median_mad,1.0,100.0,True,False,603,603,0.9953320956006322,0.0016611295681063123,0.0004696301829774134,602,1,1,0.9983416252072969,0.9983416252072969,0.9983416252072969,289.24661553110786,4.910689792397963,6.077773248002884,0.01622562954778342,6.082814273869492,601,815.7774086378738,816.016518689296,0.2391100514222444,0.2391100514222444,0.029310697855864026,61.9273119712334,64.14136307435817,2.214051103124767,2.214051103124767,3.575241735267377,38.473190094833306,42.1881382593482,3.714948164514894,3.714948164514894,9.655940033456666,19.30116472545757,24.333333333333336,5.032168607875764,5.032168607875764,26.071839080459778,38.504571690160056,42.22234820294952,3.717776512789463,3.717776512789463,9.655415836607139,27.22684374879574,29.855708731925244,2.6288649831295032,2.6288649831295032,9.655415836607133,83.23871043837475,85.65550519486601,2.4167947564912566,2.4167947564912566,2.9034505024924853,0.3270935314279401,0.3485556318184523,0.021462100390512162,0.021462100390512162,6.561456686966108,1.4540556028720704,1.5047588278077533,0.05070322493568291,0.05070322493568291,3.4870210489566706,1.077286974252094,1.0234229764525296,-0.05386399779956452,0.05386399779956452,-4.999967426224528,901.0824037873131,941.6011372772057,40.51873348989261,40.51873348989261,4.49667348064833,679.6120627362407,831.1371870741802,151.5251243379396,151.5251243379396,22.295826199416197,1.3258775898700104,1.1329070000969244,-0.192970589773086,0.192970589773086,-14.55417839832446
s3_sit,heartpy,HeartPy,mid_upslope,median_mad,1.0,100.0,True,False,592,603,0.9953320956006322,0.02030456852791878,0.015971643190967597,591,1,12,0.9800995024875622,0.9983108108108109,0.9891213389121339,289.268057045471,4.945584605349522,6.102371358854778,-0.10052147830129379,6.106819252039662,579,815.7774086378738,812.445551283199,-3.331857354674753,3.331857354674753,-0.4084272645203607,61.9273119712334,62.53382964300274,0.606517671769339,0.606517671769339,0.9794025486704151,38.473190094833306,42.08417063990494,3.6109805450716337,3.6109805450716337,9.38570608824186,19.30116472545757,23.70242214532872,4.401257419871147,4.401257419871147,22.80306645984965,38.504571690160056,42.11955255700362,3.614980866843567,3.614980866843567,9.388445860228552,27.22684374879574,29.78302123360045,2.55617748480471,2.55617748480471,9.388445860228552,83.23871043837475,83.27023085016086,0.03152041178610432,0.03152041178610432,0.0378674917236257,0.3270935314279401,0.3576670909822861,0.030573559554345986,0.030573559554345986,9.347038879330896,1.4540556028720704,1.5476794062554529,0.0936238033833825,0.0936238033833825,6.438804898413478,1.077286974252094,1.0488775027403026,-0.028409471511791518,0.028409471511791518,-2.6371312557190048,901.0824037873131,870.3673476371093,-30.715056150203736,30.715056150203736,-3.4086844911304652,679.6120627362407,743.1099175138114,63.49785477757075,63.49785477757075,9.343250106820786,1.3258775898700104,1.1712498072277884,-0.154627782642222,0.154627782642222,-11.662297019243063
s3_sit,findpeaks,find_peaks baseline,mid_upslope,median_mad,1.0,100.0,True,False,603,603,0.9953320956006322,0.0016611295681063123,0.00012738625776714596,602,1,1,0.9983416252072969,0.9983416252072969,0.9983416252072969,289.24661553110786,4.910689792397963,6.077773248002884,0.01622562954778342,6.082814273869492,601,815.7774086378738,816.016518689296,0.2391100514222444,0.2391100514222444,0.029310697855864026,61.9273119712334,64.14136307435817,2.214051103124767,2.214051103124767,3.575241735267377,38.473190094833306,42.1881382593482,3.714948164514894,3.714948164514894,9.655940033456666,19.30116472545757,24.333333333333336,5.032168607875764,5.032168607875764,26.071839080459778,38.504571690160056,42.22234820294952,3.717776512789463,3.717776512789463,9.655415836607139,27.22684374879574,29.855708731925244,2.6288649831295032,2.6288649831295032,9.655415836607133,83.23871043837475,85.65550519486601,2.4167947564912566,2.4167947564912566,2.9034505024924853,0.3270935314279401,0.3485556318184523,0.021462100390512162,0.021462100390512162,6.561456686966108,1.4540556028720704,1.5047588278077533,0.05070322493568291,0.05070322493568291,3.4870210489566706,1.077286974252094,1.0234229764525296,-0.05386399779956452,0.05386399779956452,-4.999967426224528,901.0824037873131,941.6011372772057,40.51873348989261,40.51873348989261,4.49667348064833,679.6120627362407,831.1371870741802,151.5251243379396,151.5251243379396,22.295826199416197,1.3258775898700104,1.1329070000969244,-0.192970589773086,0.192970589773086,-14.55417839832446
s3_sit,msptdfast,MSPTDfast v2,mid_upslope,lipponen_tarvainen,1.0,100.0,True,False,603,603,0.9953320956006322,0.0,0.02192163689483207,602,1,1,0.9983416252072969,0.9983416252072969,0.9983416252072969,288.9999999999967,4.915141430948457,6.08481375250394,0.016638935108171615,6.089859551014323,601,815.7774086378738,815.953488372093,0.17607973421922907,0.17607973421922907,0.021584286639321663,61.9273119712334,64.09465101688056,2.167339045647161,2.167339045647161,3.4998112733424267,38.473190094833306,42.18635859983039,3.7131685049970855,3.7131685049970855,9.651314320035393,19.30116472545757,24.292845257903494,4.991680532445923,4.991680532445923,25.86206896551724,38.504571690160056,42.220516366081206,3.7159446759211505,3.7159446759211505,9.65065838369206,27.22684374879574,29.854413427653633,2.627569678857892,2.627569678857892,9.650658383692054,83.23871043837475,85.58599521441667,2.347284776041917,2.347284776041917,2.8199437060953922,0.3270935314279401,0.34882358209260805,0.021730050664667933,0.021730050664667933,6.643375235763457,1.4540556028720704,1.5384349900191248,0.0843793871470544,0.0843793871470544,5.803037172745463,1.077286974252094,1.0424029870607228,-0.03488398719137131,0.03488398719137131,-3.2381332017487265,901.0824037873131,944.0210498764415,42.93864608912838,42.93864608912838,4.7652296736296496,679.6120627362407,835.5662188246745,155.95415608843382,155.95415608843382,22.94752619024069,1.3258775898700104,1.1297980083545287,-0.19607958151548166,0.19607958151548166,-14.788663977245848
s3_sit,msptd,MSPTD,mid_upslope,lipponen_tarvainen,1.0,100.0,True,False,603,603,0.9953320956006322,0.0,0.902674855473606,602,1,1,0.9983416252072969,0.9983416252072969,0.9983416252072969,288.9999999999967,4.908485856905447,6.079615978764796,0.016638935108171236,6.084657428134239,601,815.7774086378738,815.9534883720929,0.17607973421911538,0.17607973421911538,0.021584286639307726,61.9273119712334,64.1015300327257,2.1742180614923043,2.1742180614923043,3.5109194833166284,38.473190094833306,42.20260537178231,3.7294152769490054,3.7294152769490054,9.693543134209296,19.30116472545757,24.292845257903494,4.991680532445923,4.991680532445923,25.86206896551724,38.504571690160056,42.236777049768584,3.7322053596085283,3.7322053596085283,9.69288891106482,27.22684374879574,29.86591146735571,2.639067718559968,2.639067718559968,9.692888911064822,83.23871043837475,85.59228725356591,2.353576815191161,2.353576815191161,2.827502736162181,0.3270935314279401,0.3489322744569073,0.021838743028967156,0.021838743028967156,6.676604986234131,1.4540556028720704,1.5414033543889605,0.08734775151689012,0.08734775151689012,6.007180973297007,1.077286974252094,1.0422299504935104,-0.03505702375858366,0.03505702375858366,-3.2541954554794446,901.0824037873131,944.1501524570548,43.06774866974172,43.06774866974172,4.779557173542057,679.6120627362407,836.1316423618754,156.51957962563472,156.51957962563472,23.030724174532555,1.3258775898700104,1.129188401230759,-0.19668918863925144,0.19668918863925144,-14.834641609602507
s3_sit,qppg,qppg (slope-sum),mid_upslope,lipponen_tarvainen,1.0,100.0,True,False,603,603,0.9953320956006322,0.0,0.003148739178626102,602,1,1,0.9983416252072969,0.9983416252072969,0.9983416252072969,289.00000000000205,4.930116472546355,6.097515928571177,0.014975041597395464,6.102576672279824,601,815.7774086378738,815.9717607973423,0.19435215946850803,0.19435215946850803,0.023824165441529356,61.9273119712334,64.15030862275924,2.2229966515258397,2.2229966515258397,3.589686974558932,38.473190094833306,42.163417126229604,3.6902270313962973,3.6902270313962973,9.591684553061977,19.30116472545757,23.960066555740433,4.658901830282861,4.658901830282861,24.137931034482754,38.504571690160056,42.1974018935629,3.692830203402842,3.692830203402842,9.590627921064643,27.22684374879574,29.83806902739239,2.611225278596649,2.611225278596649,9.590627921064648,83.23871043837475,85.675047881557,2.4363374431822535,2.4363374431822535,2.926928385064279,0.3270935314279401,0.3482702346270359,0.02117670319909576,0.02117670319909576,6.474204215120977,1.4540556028720704,1.5406357532582067,0.08658015038613631,0.08658015038613631,5.954390617189743,1.077286974252094,1.0429044581226448,-0.034382516129449314,0.034382516129449314,-3.19158376098619,901.0824037873131,944.5542615470277,43.47185775971468,43.47185775971468,4.824404247269659,679.6120627362407,835.7334019254503,156.1213391892096,156.1213391892096,22.97212597443267,1.3258775898700104,1.1302100159822075,-0.19566757388780287,0.19566757388780287,-14.757589643474269
s3_sit,terma,TERMA,mid_upslope,lipponen_tarvainen,1.0,100.0,True,False,603,603,0.9953320956006322,0.0,0.00047155584636345276,602,1,1,0.9983416252072969,0.9983416252072969,0.9983416252072969,288.9999999999967,4.908485856905447,6.080163322090595,0.016638935108171236,6.085205229441,601,815.7774086378738,815.9534883720929,0.17607973421911538,0.17607973421911538,0.021584286639307726,61.9273119712334,64.09981683743722,2.172504866203816,2.172504866203816,3.508153021744255,38.473190094833306,42.19897799426413,3.725787899430827,3.725787899430827,9.68411480890215,19.30116472545757,24.292845257903494,4.991680532445923,4.991680532445923,25.86206896551724,38.504571690160056,42.23314656623611,3.7285748760760526,3.7285748760760526,9.683460203321518,27.22684374879574,29.86334432783091,2.636500579035168,2.636500579035168,9.683460203321518,83.23871043837475,85.59061690830022,2.351906469925467,2.351906469925467,2.8254960432942866,0.3270935314279401,0.3489090908157117,0.021815559387771577,0.021815559387771577,6.669517215010296,1.4540556028720704,1.539296935195317,0.0852413323232466,0.0852413323232466,5.862315867073911,1.077286974252094,1.042341015386681,-0.034945958865413074,0.034945958865413074,-3.243885770518509,901.0824037873131,944.1158607267859,43.033456939472785,43.033456939472785,4.7757515581926935,679.6120627362407,835.9173121474191,156.30524941117847,156.30524941117847,22.999187033535772,1.3258775898700104,1.1294369036351353,-0.1964406862348751,0.1964406862348751,-14.81589912490596
s3_sit,heartpy,HeartPy,mid_upslope,lipponen_tarvainen,1.0,100.0,True,False,592,603,0.9953320956006322,0.018612521150592216,0.018006118246009947,602,1,1,0.9983416252072969,0.9983416252072969,0.9983416252072969,289.00000000001546,5.178036605657561,6.557057901183251,0.016638935108171236,6.562498712463391,601,815.7774086378738,815.953488372093,0.17607973421922907,0.17607973421922907,0.021584286639321663,61.9273119712334,64.0559070713968,2.128595100163402,2.128595100163402,3.4372476899242472,38.473190094833306,42.28323403193848,3.8100439371051706,3.8100439371051706,9.903114162651239,19.30116472545757,23.960066555740433,4.658901830282861,4.658901830282861,24.137931034482754,38.504571690160056,42.31747474608102,3.8129030559209625,3.8129030559209625,9.902468430509408,27.22684374879574,29.922973355644363,2.696129606848622,2.696129606848622,9.902468430509405,83.23871043837475,85.50400064930437,2.2652902109296207,2.2652902109296207,2.7214383776484787,0.3270935314279401,0.3499599215055887,0.02286639007764857,0.02286639007764857,6.990780275545166,1.4540556028720704,1.5473641719111353,0.09330856903906493,0.09330856903906493,6.417125236116183,1.077286974252094,1.0440624345510592,-0.033224539701034894,0.033224539701034894,-3.0840936997405928,901.0824037873131,940.0851825128398,39.002778725526696,39.002778725526696,4.3284363962269445,679.6120627362407,819.6247275776615,140.01266484142081,140.01266484142081,20.601851043918288,1.3258775898700104,1.1469702546568965,-0.17890733521311386,0.17890733521311386,-13.493503214776714
s3_sit,findpeaks,find_peaks baseline,mid_upslope,lipponen_tarvainen,1.0,100.0,True,False,603,603,0.9953320956006322,0.0,0.00012621623469093274,602,1,1,0.9983416252072969,0.9983416252072969,0.9983416252072969,288.9999999999967,4.908485856905447,6.080163322090595,0.016638935108171236,6.085205229441,601,815.7774086378738,815.9534883720929,0.17607973421911538,0.17607973421911538,0.021584286639307726,61.9273119712334,64.09981683743722,2.172504866203816,2.172504866203816,3.508153021744255,38.473190094833306,42.19897799426413,3.725787899430827,3.725787899430827,9.68411480890215,19.30116472545757,24.292845257903494,4.991680532445923,4.991680532445923,25.86206896551724,38.504571690160056,42.23314656623611,3.7285748760760526,3.7285748760760526,9.683460203321518,27.22684374879574,29.86334432783091,2.636500579035168,2.636500579035168,9.683460203321518,83.23871043837475,85.59061690830022,2.351906469925467,2.351906469925467,2.8254960432942866,0.3270935314279401,0.3489090908157117,0.021815559387771577,0.021815559387771577,6.669517215010296,1.4540556028720704,1.539296935195317,0.0852413323232466,0.0852413323232466,5.862315867073911,1.077286974252094,1.042341015386681,-0.034945958865413074,0.034945958865413074,-3.243885770518509,901.0824037873131,944.1158607267859,43.033456939472785,43.033456939472785,4.7757515581926935,679.6120627362407,835.9173121474191,156.30524941117847,156.30524941117847,22.999187033535772,1.3258775898700104,1.1294369036351353,-0.1964406862348751,0.1964406862348751,-14.81589912490596
s4_sit,msptdfast,MSPTDfast v2,mid_upslope,none,1.0,100.0,True,False,679,681,0.9920795607314664,0.0,0.021748469363344486,679,0,2,0.9970631424375918,1.0,0.9985294117647059,265.69425089327103,5.127860668814889,7.385192105144843,0.019915647783454143,7.390625633540537,677,724.3264705882353,725.3999897505577,1.0735191623223272,1.0735191623223272,0.14820929593398785,47.66481403611934,53.00843335796926,5.343619321849921,5.343619321849921,11.21082590986434,25.291933202608096,44.07737582397567,18.785442621367576,18.785442621367576,74.27444343965936,4.860088365243005,6.794682422451995,1.9345940572089901,1.9345940572089901,39.80573832863346,25.31055348154773,44.10975538026389,18.799201898716163,18.799201898716163,74.27416359117328,17.89726400238718,31.1903071458644,13.29304314347722,13.29304314347722,74.27416359117329,64.98889855524969,68.16856133350018,3.1796627782504885,3.1796627782504885,4.892624508087837,0.2753895572975743,0.4575468006911934,0.1821572433936191,0.1821572433936191,66.1452980211547,1.4191767991993267,1.3737545265479403,-0.04542227265138643,0.04542227265138643,-3.200607047480824,1.2617883725140517,1.2082276060368893,-0.05356076647716246,0.05356076647716246,-4.244829611993115,966.4383586160568,995.8542059740021,29.415847357945268,29.415847357945268,3.0437375643976785,276.63397826643387,307.8909629748853,31.256984708451455,31.256984708451455,11.299040307458899,3.4935634612652433,3.234437920333615,-0.25912554093162843,0.25912554093162843,-7.417227246754591
s4_sit,msptd,MSPTD,mid_upslope,none,1.0,100.0,True,False,680,681,0.9920795607314664,0.0,0.8931273182265,680,0,1,0.9985315712187959,1.0,0.9992652461425422,265.72273315080486,5.172904840358727,7.4542884946351196,0.019430119113557284,7.459758390329544,679,724.3264705882353,724.3316539777292,0.005183389493822688,0.005183389493822688,0.0007156150857793705,47.66481403611934,48.62608397397147,0.9612699378521299,0.9612699378521299,2.0167286022005686,25.291933202608096,27.466660000686733,2.1747267980786376,2.1747267980786376,8.598499690226845,4.860088365243005,6.637168141592921,1.7770797763499164,1.7770797763499164,36.564762670957364,25.31055348154773,27.486602068723506,2.176048587175778,2.176048587175778,8.597396294641257,17.89726400238718,19.43596271457058,1.5386987121834004,1.5386987121834004,8.597396294641266,64.98889855524969,65.96389496266326,0.9749964074135704,0.9749964074135704,1.500250702948422,0.2753895572975743,0.294645468184856,0.01925591088728168,0.01925591088728168,6.992244395990134,1.4191767991993267,1.4575280560581692,0.03835125685884244,0.03835125685884244,2.7023593452542003,1.2617883725140517,1.2327112730666645,-0.029077099447387234,0.029077099447387234,-2.3044355203125333,966.4383586160568,992.1148665121492,25.676507896092403,25.676507896092403,2.6568179612470324,276.63397826643387,301.44147305076746,24.807494784333585,24.807494784333585,8.967623912215439,3.4935634612652433,3.2912354642888224,-0.2023279969764209,0.2023279969764209,-5.791450455093349
s4_sit,qppg,qppg (slope-sum),mid_upslope,none,1.0,100.0,True,False,614,681,0.9920795607314664,0.02936378466557912,0.0034196982452106865,612,2,69,0.8986784140969163,0.996742671009772,0.9451737451737452,265.5365304094156,4.696428443791915,6.494726676846971,-0.6852463572656634,6.4639842801530705,587,724.3264705882353,731.8600790327883,7.5336084445530105,7.5336084445530105,1.0400846511152444,47.66481403611934,92.74690870625805,45.082094670138716,45.082094670138716,94.5814970262477,25.291933202608096,111.22890317416787,85.93696997155978,85.93696997155978,339.7801555268143,4.860088365243005,9.25925925925926,4.399170894016255,4.399170894016255,90.51627384960716,25.31055348154773,111.31971422181279,86.00916074026506,86.00916074026506,339.8154086316947,17.89726400238718,78.71492480599238,60.81766080360521,60.81766080360521,339.81540863169477,64.98889855524969,104.91872455344135,39.92982599819166,39.92982599819166,61.440995132800566,0.2753895572975743,0.7502466803806616,0.47485712308308725,0.47485712308308725,172.43105647974036,1.4191767991993267,0.9282874481617865,-0.49088935103754017,0.49088935103754017,-34.58972492465286,1.2617883725140517,0.6970371937832712,-0.5647511787307805,0.5647511787307805,-44.757995162496336,966.4383586160568,2918.1659352012925,1951.7275765852357,1951.7275765852357,201.95054958084617,276.63397826643387,3840.6714678100548,3564.0374895436207,3564.0374895436207,1288.3585421711996,3.4935634612652433,0.7598061848453876,-2.7337572764198557,2.7337572764198557,-78.25125568006104
s4_sit,terma,TERMA,mid_upslope,none,1.0,100.0,True,False,680,681,0.9920795607314664,0.0014727540500736377,0.0004191515897040338,679,1,2,0.9970631424375918,0.9985294117647059,0.9977957384276267,265.7512154083387,5.13040074222936,7.4003406463315775,0.01520694302257115,7.405796612371459,677,724.3264705882353,724.4796857526618,0.15321516442645589,0.15321516442645589,0.021152777186512012,47.66481403611934,49.0795916661585,1.4147776300391612,1.4147776300391612,2.9681803205338726,25.291933202608096,28.70762304009961,3.415689837491513,3.415689837491513,13.505056375600772,4.860088365243005,7.0901033973412115,2.2300150320982066,2.2300150320982066,45.884248690747945,25.31055348154773,28.72775987254221,3.417206390994483,3.417206390994483,13.50111285984222,17.89726400238718,20.313593814173387,2.416329811786209,2.416329811786209,13.501112859842229,64.98889855524969,66.36995210625427,1.3810535510045838,1.3810535510045838,2.12506071299315,0.2753895572975743,0.3060661213323245,0.03067656403475022,0.03067656403475022,11.139334525165898,1.4191767991993267,1.4511512093289698,0.03197441012964308,0.03197441012964308,2.2530251444134692,1.2617883725140517,1.2466587410227987,-0.015129631491253015,0.015129631491253015,-1.1990625227515739,966.4383586160568,989.5357855033969,23.097426887340134,23.097426887340134,2.3899534493245627,276.63397826643387,301.76169816624656,25.12771989981269,25.12771989981269,9.083381606727821,3.4935634612652433,3.2791961057902115,-0.21436735547503183,0.21436735547503183,-6.136065878058951
s4_sit,heartpy,HeartPy,mid_upslope,none,1.0,100.0,True,False,672,681,0.9920795607314664,0.005961251862891207,0.03522985876023755,670,2,11,0.9838472834067548,0.9970238095238095,0.9903917220990393,265.7648651593997,5.002393861359425,6.986578975530208,-0.039024404564676665,6.991728903656454,665,724.3264705882353,726.9707454892458,2.6442749010104762,2.6442749010104762,0.36506672175918475,47.66481403611934,70.95903569529406,23.294221659174724,23.294221659174724,48.870895922352446,25.291933202608096,78.32331883156155,53.03138562895346,53.03138562895346,209.6770745206811,4.860088365243005,7.3573573573573565,2.4972689921143516,2.4972689921143516,51.383201383201346,25.31055348154773,78.37994025506946,53.06938677352173,53.06938677352173,209.6729603807801,17.89726400238718,55.42298726335607,37.52572326096889,37.52572326096889,209.6729603807801,64.98889855524969,83.65800605093277,18.66910749568308,18.66910749568308,28.726610099125953,0.2753895572975743,0.6624947196280698,0.3871051623304955,0.3871051623304955,140.56639116210425,1.4191767991993267,1.1273205689151515,-0.2918562302841752,0.2918562302841752,-20.565177675454887,1.2617883725140517,1.2975948647622466,0.03580649224819488,0.03580649224819488,2.8377573472841715,966.4383586160568,2227.8313721659297,1261.3930135498729,1261.3930135498729,130.51975868964806,276.63397826643387,2131.4879458108426,1854.8539675444088,1854.8539675444088,670.5083660250684,3.4935634612652433,1.04520008032156,-2.4483633809436833,2.4483633809436833,-70.08212125212043
s4_sit,findpeaks,find_peaks baseline,mid_upslope,none,1.0,100.0,True,False,682,681,0.9920795607314664,0.0,0.0001599880143043509,681,1,0,1.0,0.998533724340176,0.9992663242846662,265.7512154083387,5.16814658404004,7.4489901044693205,0.016062956417623047,7.454456019717209,680,724.3264705882353,724.6018423645263,0.2753717762909673,0.2753717762909673,0.038017632583182304,47.66481403611934,49.02455389336805,1.3597398572487123,1.3597398572487123,2.8527119736968483,25.291933202608096,28.52636025846459,3.234427055856493,3.234427055856493,12.788374182179792,4.860088365243005,6.911764705882353,2.0516763406393483,2.0516763406393483,42.214795008912645,25.31055348154773,28.546272648175492,3.2357191666277636,3.2357191666277636,12.784071154298205,17.89726400238718,20.185262967124956,2.2879989647377776,2.2879989647377776,12.784071154298216,64.98889855524969,66.32773875111009,1.3388401958603993,1.3388401958603993,2.060105995983602,0.2753895572975743,0.30432611373755186,0.028936556439977557,0.028936556439977557,10.50749953045966,1.4191767991993267,1.4454211952967357,0.02624439609740903,0.02624439609740903,1.8492689643894709,1.2617883725140517,1.2759904874164294,0.01420211490237766,0.01420211490237766,1.125554428281871,966.4383586160568,992.1399639873263,25.701605371269466,25.701605371269466,2.6594148651212746,276.63397826643387,301.3806912397886,24.746712973354704,24.746712973354704,8.945651986944446,3.4935634612652433,3.2919825085872754,-0.20158095267796794,0.20158095267796794,-5.770067007884339
s4_sit,msptdfast,MSPTDfast v2,mid_upslope,median_mad,1.0,100.0,True,False,679,681,0.9920795607314664,0.004424778761061947,0.021778353228806547,679,0,2,0.9970631424375918,1.0,0.9985294117647059,265.69425089327103,5.127860668814889,7.385192105144843,0.019915647783454143,7.390625633540537,677,724.3264705882353,724.4266807211064,0.10021013287109781,0.10021013287109781,0.013834940036046978,47.66481403611934,48.42423847543133,0.7594244393119922,0.7594244393119922,1.5932600486734665,25.291933202608096,27.379764071267847,2.0878308686597506,2.0878308686597506,8.254927972229716,4.860088365243005,6.528189910979229,1.6681015457362243,1.6681015457362243,34.32245301681503,25.31055348154773,27.399757002637852,2.0892035210901234,2.0892035210901234,8.254278289936352,17.89726400238718,19.374553979428818,1.4772899770416394,1.4772899770416394,8.254278289936355,64.98889855524969,65.68439998925992,0.6955014340102252,0.6955014340102252,1.0701849846231066,0.2753895572975743,0.29496431394055145,0.019574756642977142,0.019574756642977142,7.108024296587793,1.4191767991993267,1.4576292787085254,0.03845247950919872,0.03845247950919872,2.7094918357524516,1.2617883725140517,1.202033614896128,-0.059754757617923815,0.059754757617923815,-4.73571946925342,966.4383586160568,976.3640367558141,9.925678139757338,9.925678139757338,1.0270368566465993,276.63397826643387,293.0698350736917,16.435856807257835,16.435856807257835,5.9413731134025785,3.4935634612652433,3.3315064189745414,-0.16205704229070195,0.16205704229070195,-4.638731887584223
s4_sit,msptd,MSPTD,mid_upslope,median_mad,1.0,100.0,True,False,680,681,0.9920795607314664,0.0029455081001472753,0.8853620442506617,680,0,1,0.9985315712187959,1.0,0.9992652461425422,265.72273315080486,5.172904840358727,7.4542884946351196,0.019430119113557284,7.459758390329544,679,724.3264705882353,724.1857010990776,-0.14076948915771936,0.14076948915771936,-0.01943453606540136,47.66481403611934,48.584413426111986,0.9195993899926478,0.9195993899926478,1.929304474566492,25.291933202608096,27.240991080178038,1.9490578775699419,1.9490578775699419,7.706243180212716,4.860088365243005,6.508875739644971,1.6487873744019659,1.6487873744019659,33.925049309664686,25.31055348154773,27.260821316808624,1.9502678352608953,1.9502678352608953,7.705354356168893,17.89726400238718,19.276311613830167,1.3790476114429886,1.3790476114429886,7.705354356168898,64.98889855524969,65.949331054115,0.9604324988653161,0.9604324988653161,1.4778408623879256,0.2753895572975743,0.29228972160480154,0.01690016430722724,0.01690016430722724,6.1368210447303335,1.4191767991993267,1.4541007582734704,0.034923959074143696,0.034923959074143696,2.460860344803209,1.2617883725140517,1.2068208072627407,-0.05496756525131108,0.05496756525131108,-4.356322062295668,966.4383586160568,976.348765848249,9.910407232192142,9.910407232192142,1.0254567343936845,276.63397826643387,293.05991207904435,16.42593381261048,16.42593381261048,5.937786065018451,3.4935634612652433,3.331567115139608,-0.16199634612563552,0.16199634612563552,-4.636994516394623
s4_sit,qppg,qppg (slope-sum),mid_upslope,median_mad,1.0,100.0,True,False,614,681,0.9920795607314664,0.04241435562805873,0.003501150002414988,612,2,69,0.8986784140969163,0.996742671009772,0.9451737451737452,265.5365304094156,4.696428443791915,6.494726676846971,-0.6852463572656634,6.4639842801530705,587,724.3264705882353,723.9336845257268,-0.39278606250854864,0.39278606250854864,-0.05422776585668086,47.66481403611934,50.98256301076703,3.3177489746476923,3.3177489746476923,6.960583066858449,25.291933202608096,32.53017197436337,7.238238771755274,7.238238771755274,28.618764385352993,4.860088365243005,7.337883959044368,2.477795593801363,2.477795593801363,50.98252146033713,25.31055348154773,32.54765292475663,7.237099443208905,7.237099443208905,28.59320894932227,17.89726400238718,23.014666094801584,5.117402092414405,5.117402092414405,28.59320894932228,64.98889855524969,68.32838800117014,3.3394894459204494,3.3394894459204494,5.138553691722309,0.2753895572975743,0.33682436785143316,0.061434810553858854,0.061434810553858854,22.30832975539265,1.4191767991993267,1.4228519568536881,0.0036751576543614384,0.0036751576543614384,0.2589640456661139,1.2617883725140517,1.2580579494743733,-0.00373042303967841,0.00373042303967841,-0.2956456978792509,966.4383586160568,962.965819529996,-3.472539086060806,3.472539086060806,-0.35931304413801357,276.63397826643387,243.47685735134215,-33.157120915091724,33.157120915091724,-11.985917681868125,3.4935634612652433,3.955060986106028,0.46149752484078466,0.46149752484078466,13.209936786825873
s4_sit,terma,TERMA,mid_upslope,median_mad,1.0,100.0,True,False,680,681,0.9920795607314664,0.004418262150220913,0.0004267561836879872,679,1,2,0.9970631424375918,0.9985294117647059,0.9977957384276267,265.7512154083387,5.13040074222936,7.4003406463315775,0.01520694302257115,7.405796612371459,677,724.3264705882353,724.3339549312161,0.007484342980774272,0.007484342980774272,0.001033283096045922,47.66481403611934,49.04002612956364,1.3752120934443042,1.3752120934443042,2.8851724720927243,25.291933202608096,28.495088396394294,3.2031551937861984,3.2031551937861984,12.66473056103078,4.860088365243005,6.962962962962963,2.102874597719958,2.102874597719958,43.26823793490458,25.31055348154773,28.515115947950544,3.204562466402816,3.204562466402816,12.660973489730493,17.89726400238718,20.1632318531165,2.2659678507293215,2.2659678507293215,12.660973489730507,64.98889855524969,66.35730861641419,1.3684100611644965,1.3684100611644965,2.105605867440815,0.2753895572975743,0.3038584938649683,0.02846893656739402,0.02846893656739402,10.337696478676456,1.4191767991993267,1.4479310822084406,0.028754283009113868,0.028754283009113868,2.0261240900595685,1.2617883725140517,1.2488393544139267,-0.012949018100125054,0.012949018100125054,-1.0262432577599971,966.4383586160568,973.5984471620144,7.160088545957592,7.160088545957592,0.7408737952217527,276.63397826643387,293.4377002151628,16.803721948728935,16.803721948728935,6.07435212913173,3.4935634612652433,3.317905117331974,-0.1756583439332693,0.1756583439332693,-5.0280564781740695
s4_sit,heartpy,HeartPy,mid_upslope,median_mad,1.0,100.0,True,False,672,681,0.9920795607314664,0.00894187779433681,0.03312215941247739,670,2,11,0.9838472834067548,0.9970238095238095,0.9903917220990393,265.7648651593997,5.002393861359425,6.986578975530208,-0.039024404564676665,6.991728903656454,665,724.3264705882353,724.9495754390108,0.6231048507754622,0.6231048507754622,0.0860254147925079,47.66481403611934,51.37590042917451,3.7110863930551687,3.7110863930551687,7.785798535252838,25.291933202608096,30.631951479582924,5.340018276974828,5.340018276974828,21.113523565783286,4.860088365243005,6.927710843373494,2.067622478130489,2.067622478130489,42.542898868200055,25.31055348154773,30.6492654084714,5.338711926923672,5.338711926923672,21.09282964047301,17.89726400238718,21.67230340871641,3.775039406329231,3.775039406329231,21.09282964047302,64.98889855524969,69.34895496528729,4.3600564100376005,4.3600564100376005,6.708924919432109,0.2753895572975743,0.31251088671147975,0.037121329413905446,0.037121329413905446,13.479570459454171,1.4191767991993267,1.3893972769002951,-0.02977952229903158,0.02977952229903158,-2.0983659200060654,1.2617883725140517,1.2076371575049203,-0.05415121500913145,0.05415121500913145,-4.291624189026072,966.4383586160568,974.1230810717504,7.684722455693645,7.684722455693645,0.7951590897838736,276.63397826643387,298.76963758278885,22.135659316354975,22.135659316354975,8.001786134541835,3.4935634612652433,3.2604487154482746,-0.23311474581696867,0.23311474581696867,-6.672692464345356
s4_sit,findpeaks,find_peaks baseline,mid_upslope,median_mad,1.0,100.0,True,False,682,681,0.9920795607314664,0.002936857562408223,0.00015520173638073983,681,1,0,1.0,0.998533724340176,0.9992663242846662,265.7512154083387,5.16814658404004,7.4489901044693205,0.016062956417623047,7.454456019717209,680,724.3264705882353,724.457115233343,0.13064464510762264,0.13064464510762264,0.018036707260128758,47.66481403611934,48.98532057842721,1.320506542307875,1.320506542307875,2.770401120850329,25.291933202608096,28.312874514647532,3.0209413120394366,3.0209413120394366,11.944287879614985,4.860088365243005,6.784660766961652,1.9245724017186472,1.9245724017186472,39.599535174756404,25.31055348154773,28.332676646046195,3.022123164498467,3.022123164498467,11.94017020094681,17.89726400238718,20.034227785584992,2.136963783197814,2.136963783197814,11.940170200946808,64.98889855524969,66.31555610396299,1.3266575487132997,1.3266575487132997,2.041360260299618,0.2753895572975743,0.30210449798803324,0.026714940690458933,0.026714940690458933,9.700782031321507,1.4191767991993267,1.4438277903666525,0.02465099116732583,0.02465099116732583,1.7369922606706554,1.2617883725140517,1.2476707132927787,-0.01411765922127306,0.01411765922127306,-1.11886109658344,966.4383586160568,976.3115722505345,9.873213634477679,9.873213634477679,1.0216082118901155,276.63397826643387,292.96417956222183,16.33020129578796,16.33020129578796,5.903179861752156,3.4935634612652433,3.332528822156493,-0.16103463910875027,0.16103463910875027,-4.609466548818017
s4_sit,msptdfast,MSPTDfast v2,mid_upslope,lipponen_tarvainen,1.0,100.0,True,False,679,681,0.9920795607314664,0.0014749262536873156,0.023527033155299828,680,0,1,0.9985315712187959,1.0,0.9992652461425422,266.00000000000057,5.123711340205976,7.125531269756633,0.019145802650952937,7.130758409415537,679,724.3264705882353,724.3313696612665,0.0048990730311970765,0.0048990730311970765,0.000676362556130038,47.66481403611934,48.53190480915013,0.8670907730307889,0.8670907730307889,1.8191422552781318,25.291933202608096,27.187646856483433,1.8957136538753367,1.8957136538753367,7.4953291972155425,4.860088365243005,6.1946902654867255,1.3346019002437206,1.3346019002437206,27.460445159560187,25.31055348154773,27.207380076217067,1.8968265946693386,1.8968265946693386,7.494212230689427,17.89726400238718,19.238522950212854,1.3412589478256756,1.3412589478256756,7.494212230689426,64.98889855524969,65.88300845819772,0.8941099029480313,0.8941099029480313,1.3757886697955226,0.2753895572975743,0.29201038933156115,0.016620832033986843,0.016620832033986843,6.035389357929457,1.4191767991993267,1.4936606359180185,0.07448383671869174,0.07448383671869174,5.2483832007903555,1.2617883725140517,1.2363078467778856,-0.025480525736166104,0.025480525736166104,-2.019397728748871,966.4383586160568,990.8793472145431,24.440988598486342,24.440988598486342,2.528975426170576,276.63397826643387,301.2995554814973,24.665577215063422,24.665577215063422,8.916322343926717,3.4935634612652433,3.2886850617188936,-0.20487839954634968,0.20487839954634968,-5.864453353085794
s4_sit,msptd,MSPTD,mid_upslope,lipponen_tarvainen,1.0,100.0,True,False,680,681,0.9920795607314664,0.0,0.8950690892303497,680,0,1,0.9985315712187959,1.0,0.9992652461425422,266.00000000000057,5.141384388806777,7.16962583470784,0.019145802650952937,7.174885638811781,679,724.3264705882353,724.3313696612665,0.0048990730311970765,0.0048990730311970765,0.000676362556130038,47.66481403611934,48.56514102777295,0.9003269916536141,0.9003269916536141,1.8888712981684272,25.291933202608096,27.176197723629258,1.8842645210211622,1.8842645210211622,7.450061274188632,4.860088365243005,6.1946902654867255,1.3346019002437206,1.3346019002437206,27.460445159560187,25.31055348154773,27.195922347931347,1.8853688663836188,1.8853688663836188,7.448943650158097,17.89726400238718,19.23042111284503,1.3331571104578508,1.3331571104578508,7.448943650158097,64.98889855524969,65.93433665335229,0.9454380981025992,0.9454380981025992,1.4547686129790982,0.2753895572975743,0.2916601893479018,0.01627063205032747,0.01627063205032747,5.908224048142143,1.4191767991993267,1.4931662664641052,0.07398946726477851,0.07398946726477851,5.213548256039839,1.2617883725140517,1.2364610165607304,-0.025327355953321362,0.025327355953321362,-2.0072586263303283,966.4383586160568,990.8950725743412,24.456713958284354,24.456713958284354,2.5306025718294602,276.63397826643387,301.3468351169008,24.71285685046695,24.71285685046695,8.933413388092664,3.4935634612652433,3.288221268990416,-0.20534219227482753,0.20534219227482753,-5.8777289879388634
s4_sit,qppg,qppg (slope-sum),mid_upslope,lipponen_tarvainen,1.0,100.0,True,False,614,681,0.9920795607314664,0.022838499184339316,0.0033934101628569843,608,12,73,0.8928046989720999,0.9806451612903225,0.9346656418139893,264.9999999999994,4.777586206895593,6.9791561588521915,-0.36379310344820803,6.975684347503395,580,724.3264705882353,767.3011456628478,42.97467507461249,42.97467507461249,5.93305323215817,47.66481403611934,202.0151292386494,154.35031520253006,154.35031520253006,323.8244359572384,25.291933202608096,213.71410349527048,188.42217029266237,188.42217029266237,744.9891978729105,4.860088365243005,11.311475409836065,6.45138704459306,6.45138704459306,132.74217585692992,25.31055348154773,213.88804483334448,188.57749135179677,188.57749135179677,745.0547910351953,17.89726400238718,151.2416869163902,133.34442291400302,133.34442291400302,745.0547910351953,64.98889855524969,242.37610653961136,177.38720798436168,177.38720798436168,272.95001442986086,0.2753895572975743,0.6239958594750051,0.3486063021774308,0.3486063021774308,126.58660901972458,1.4191767991993267,0.44047600363661943,-0.9787007955627073,0.9787007955627073,-68.9625701403005,1.2617883725140517,0.8187837490934254,-0.4430046234206263,0.4430046234206263,-35.10926499805678,966.4383586160568,24657.10988630022,23690.67152768416,23690.67152768416,2451.338082400753,276.63397826643387,9650.829593459965,9374.19561519353,9374.19561519353,3388.6638488656595,3.4935634612652433,2.554921278789286,-0.9386421824759572,0.9386421824759572,-26.867758175373595
s4_sit,terma,TERMA,mid_upslope,lipponen_tarvainen,1.0,100.0,True,False,680,681,0.9920795607314664,0.0014727540500736377,0.00042288099910501654,679,2,2,0.9970631424375918,0.9970631424375918,0.9970631424375918,265.999999999996,5.180206794682075,7.420379936682173,-0.12555391432785717,7.424803298380147,677,724.3264705882353,725.6676470588235,1.3411764705881524,1.3411764705881524,0.185161874520334,47.66481403611934,52.80900211443963,5.1441880783202905,5.1441880783202905,10.792422423849466,25.291933202608096,34.84717318011468,9.555239977506584,9.555239977506584,37.77979287293567,4.860088365243005,6.774668630338733,1.9145802650957284,1.9145802650957284,39.39393939393938,25.31055348154773,34.87197268389715,9.56141920234942,9.56141920234942,37.77641294695521,17.89726400238718,24.658208358135724,6.760944355748546,6.760944355748546,37.77641294695521,64.98889855524969,70.4950648571412,5.506166301891511,5.506166301891511,8.472472105694324,0.2753895572975743,0.3497863064330216,0.0743967491354473,0.0743967491354473,27.015094495779056,1.4191767991993267,1.3960189110118855,-0.023157888187441245,0.023157888187441245,-1.6317831718011806,1.2617883725140517,1.1497101406475077,-0.11207823186654409,0.11207823186654409,-8.882490464168225,966.4383586160568,1155.4043985760343,188.96603995997748,188.96603995997748,19.55282903201168,276.63397826643387,518.1847436671235,241.5507654006896,241.5507654006896,87.31782224092709,3.4935634612652433,2.229715198481903,-1.2638482627833403,1.2638482627833403,-36.17647931105908
s4_sit,heartpy,HeartPy,mid_upslope,lipponen_tarvainen,1.0,100.0,True,False,672,681,0.9920795607314664,0.0014903129657228018,0.03898578694165811,670,2,11,0.9838472834067548,0.9970238095238095,0.9903917220990393,266.0,4.999999999999583,6.8724053004903665,-0.11951588502278215,6.876569599897499,661,724.3264705882353,733.6492537313433,9.322783143107927,9.322783143107927,1.287096843987597,47.66481403611934,93.22294808023207,45.558134044112734,45.558134044112734,95.58021984432749,25.291933202608096,96.2947642104694,71.0028310078613,71.0028310078613,280.73311138011195,4.860088365243005,7.623318385650224,2.763230020407219,2.763230020407219,56.8555510259546,25.31055348154773,96.36501183628546,71.05445835473773,71.05445835473773,280.7305593160533,17.89726400238718,68.14035333855936,50.24308933617219,50.24308933617219,280.7305593160533,64.98889855524969,112.86243105850401,47.873532503254324,47.873532503254324,73.66416967746437,0.2753895572975743,0.603746992683843,0.3283574353862687,0.3283574353862687,119.23380051461413,1.4191767991993267,0.9089263352054313,-0.5102504639938954,0.5102504639938954,-35.95397446475797,1.2617883725140517,0.9190472584271853,-0.34274111408686647,0.34274111408686647,-27.16312192701313,966.4383586160568,3385.6531806588996,2419.2148220428426,2419.2148220428426,250.32272368691645,276.63397826643387,2954.2183962732975,2677.5844180068634,2677.5844180068634,967.9159569573943,3.4935634612652433,1.146040247034495,-2.3475232142307485,2.3475232142307485,-67.195665407508
s4_sit,findpeaks,find_peaks baseline,mid_upslope,lipponen_tarvainen,1.0,100.0,True,False,682,681,0.9920795607314664,0.0,0.00015897973691980053,681,1,0,1.0,0.998533724340176,0.9992663242846662,266.00000000000057,5.136764705882076,7.164762628964182,0.016176470588216904,7.170018379496813,680,724.3264705882353,724.6020558002937,0.2755852120583313,0.2755852120583313,0.038047099374198604,47.66481403611934,48.96477060574587,1.2999565696265307,1.2999565696265307,2.7272876143845908,25.291933202608096,28.248034809313022,2.9561016067049266,2.9561016067049266,11.68792271837921,4.860088365243005,6.470588235294119,1.6104998700511137,1.6104998700511137,33.137254901960794,25.31055348154773,28.267734239098704,2.957180757550976,2.957180757550976,11.68358787454752,17.89726400238718,19.988306569245847,2.0910425668586683,2.0910425668586683,11.68358787454753,64.98889855524969,66.29905822438562,1.3101596691359276,1.3101596691359276,2.0159745714448567,0.2753895572975743,0.30148703623506223,0.026097478937487928,0.026097478937487928,9.476568099961792,1.4191767991993267,1.4931662664641052,0.07398946726477851,0.07398946726477851,5.213548256039839,1.2617883725140517,1.2758132669270215,0.014024894412969724,0.014024894412969724,1.1115092450111745,966.4383586160568,990.8441040485706,24.405745432513754,24.405745432513754,2.525328720133053,276.63397826643387,301.35508608910277,24.7211078226689,24.7211078226689,8.936396019602233,3.4935634612652433,3.287962107782724,-0.2056013534825194,0.2056013534825194,-5.885147236113409
s5_sit,msptdfast,MSPTDfast v2,mid_upslope,none,1.0,100.0,True,False,637,638,0.9911163611061667,0.0,0.02348274648423664,637,0,1,0.9984326018808778,1.0,0.9992156862745099,267.50521200942336,3.509940134539909,4.497123597609184,-0.00670493446300115,4.50065824453837,636,774.7158555729984,774.5813453800025,-0.13451019299589007,0.13451019299589007,-0.01736251969393386,49.02100643708726,50.04676108025908,1.0257546431718225,1.0257546431718225,2.092479770867738,26.212124517066584,27.61717999956035,1.4050554824937649,1.4050554824937649,5.360326598398921,5.345911949685535,6.929133858267717,1.583221908582182,1.583221908582182,29.615562760537284,26.232755677027686,27.638936540182396,1.4061808631547095,1.4061808631547095,5.3604008685451126,18.54935942843618,19.54367945234763,0.9943200239114489,0.9943200239114489,5.360400868545119,66.79849855351979,68.02500409932333,1.2265055458035334,1.2265055458035334,1.836127416577847,0.2776912629791252,0.2873014079324699,0.009610144953344668,0.009610144953344668,3.460730038909106,1.5491181222005777,1.5039708607936453,-0.04514726140693237,0.04514726140693237,-2.9143846915172014,1.2379608927180985,1.2197242599870333,-0.01823663273106524,0.01823663273106524,-1.473118645212162,886.7114917235966,928.6211207179989,41.90962899440228,41.90962899440228,4.726410944887838,287.29067184026013,331.89715566758525,44.60648382732512,44.60648382732512,15.526603610759523,3.086461130268189,2.79791828541028,-0.28854284485790904,0.28854284485790904,-9.348662843288002
s5_sit,msptd,MSPTD,mid_upslope,none,1.0,100.0,True,False,637,638,0.9911163611061667,0.0,0.9143348800136532,637,0,1,0.9984326018808778,1.0,0.9992156862745099,267.50521200942336,3.5100960276224806,4.497354434980261,-0.00670493446300115,4.500889263856406,636,774.7158555729984,774.5813453800025,-0.13451019299589007,0.13451019299589007,-0.01736251969393386,49.02100643708726,50.046734847440376,1.0257284103531177,1.0257284103531177,2.0924262574443886,26.212124517066584,27.617082051656173,1.4049575345895882,1.4049575345895882,5.359952924360737,5.345911949685535,6.929133858267717,1.583221908582182,1.583221908582182,29.615562760537284,26.232755677027686,27.638838515009514,1.4060828379818275,1.4060828379818275,5.360027193838236,18.54935942843618,19.543610138083157,0.9942507096469768,0.9942507096469768,5.36002719383824,66.79849855351979,68.02498541382143,1.226486860301634,1.226486860301634,1.8360994436408735,0.2776912629791252,0.2873004678970832,0.00960920491795797,0.00960920491795797,3.4603915207373013,1.5491181222005777,1.5037577547725935,-0.045360367427984105,0.045360367427984105,-2.9281412939349054,1.2379608927180985,1.2197278866188963,-0.018233006099202198,0.018233006099202198,-1.4728256931581534,886.7114917235966,928.6219597730015,41.910468049404926,41.910468049404926,4.726505570367543,287.29067184026013,331.8943516221608,44.60367978190067,44.60367978190067,15.52562757996587,3.086461130268189,2.79794445200494,-0.2885166782632491,0.2885166782632491,-9.347815056986619
s5_sit,qppg,qppg (slope-sum),mid_upslope,none,1.0,100.0,True,False,638,638,0.9911163611061667,0.0,0.005807691063120094,638,0,0,1.0,1.0,1.0,267.56576734029215,3.4976068606033843,4.482008315049483,0.0006194417148849303,4.485530479681408,637,774.7158555729984,774.7164750147134,0.000619441715002722,0.000619441715002722,7.995727860049645e-05,49.02100643708726,50.12289756867698,1.1018911315897242,1.1018911315897242,2.2477937759272097,26.212124517066584,27.600014010771893,1.387889493705309,1.387889493705309,5.2948378633012405,5.345911949685535,6.918238993710692,1.5723270440251573,1.5723270440251573,29.411764705882355,26.232755677027686,27.621737342874447,1.3889816658467602,1.3889816658467602,5.29483704627763,18.54935942843618,19.53151778330021,0.9821583548640298,0.9821583548640298,5.294837046277622,66.79849855351979,68.14051316537612,1.342014611856328,1.342014611856328,2.0090490668455505,0.2776912629791252,0.2866359068341249,0.008944643854999657,0.008944643854999657,3.2210750021588,1.5491181222005777,1.5035466393730177,-0.04557148282755996,0.04557148282755996,-2.941769396049931,1.2379608927180985,1.2205955360770298,-0.017365356641068752,0.017365356641068752,-1.4027387087277798,886.7114917235966,928.62921371081,41.917721987213326,41.917721987213326,4.727323642296925,287.29067184026013,331.8152652989828,44.52459345872268,44.52459345872268,15.498099250322795,3.086461130268189,2.7986331878796076,-0.28782794238858145,0.28782794238858145,-9.325500313803449
s5_sit,terma,TERMA,mid_upslope,none,1.0,100.0,True,False,638,638,0.9911163611061667,0.0,0.0004098488650712008,638,0,0,1.0,1.0,1.0,267.5186670266659,3.51192773705333,4.497640727796028,0.0006194417148856443,4.501175177382476,637,774.7158555729984,774.7164750147134,0.000619441715002722,0.000619441715002722,7.995727860049645e-05,49.02100643708726,50.12355501687647,1.1025485797892145,1.1025485797892145,2.2491349319892215,26.212124517066584,27.60843236565969,1.396307848593107,1.396307848593107,5.326954126453878,5.345911949685535,6.918238993710692,1.5723270440251573,1.5723270440251573,29.411764705882355,26.232755677027686,27.63016230488371,1.397406627856025,1.397406627856025,5.326953237626308,18.54935942843618,19.537475131068202,0.9881157026320224,0.9881157026320224,5.326953237626311,66.79849855351979,68.13977253089841,1.34127397737862,1.34127397737862,2.007940307676189,0.2776912629791252,0.2867264507260985,0.009035187746973261,0.009035187746973261,3.2536809585011897,1.5491181222005777,1.5057755504426895,-0.04334257175788814,0.04334257175788814,-2.7978868193936344,1.2379608927180985,1.2209025267898097,-0.0170583659282888,0.0170583659282888,-1.3779406141687573,886.7114917235966,928.6218464429924,41.91035471939574,41.91035471939574,4.726492789433695,287.29067184026013,331.89419359365974,44.603521753399605,44.603521753399605,15.525572573480607,3.086461130268189,2.797945442757309,-0.2885156875108801,0.2885156875108801,-9.3477829570402
s5_sit,heartpy,HeartPy,mid_upslope,none,1.0,100.0,True,False,638,638,0.9911163611061667,0.0,0.02266387401026912,638,0,0,1.0,1.0,1.0,267.5186670266659,3.51192773705333,4.497640727796028,0.0006194417148856443,4.501175177382476,637,774.7158555729984,774.7164750147134,0.000619441715002722,0.000619441715002722,7.995727860049645e-05,49.02100643708726,50.12355501687647,1.1025485797892145,1.1025485797892145,2.2491349319892215,26.212124517066584,27.60843236565969,1.396307848593107,1.396307848593107,5.326954126453878,5.345911949685535,6.918238993710692,1.5723270440251573,1.5723270440251573,29.411764705882355,26.232755677027686,27.63016230488371,1.397406627856025,1.397406627856025,5.326953237626308,18.54935942843618,19.537475131068202,0.9881157026320224,0.9881157026320224,5.326953237626311,66.79849855351979,68.13977253089841,1.34127397737862,1.34127397737862,2.007940307676189,0.2776912629791252,0.2867264507260985,0.009035187746973261,0.009035187746973261,3.2536809585011897,1.5491181222005777,1.5057755504426895,-0.04334257175788814,0.04334257175788814,-2.7978868193936344,1.2379608927180985,1.2209025267898097,-0.0170583659282888,0.0170583659282888,-1.3779406141687573,886.7114917235966,928.6218464429924,41.91035471939574,41.91035471939574,4.726492789433695,287.29067184026013,331.89419359365974,44.603521753399605,44.603521753399605,15.525572573480607,3.086461130268189,2.797945442757309,-0.2885156875108801,0.2885156875108801,-9.3477829570402
s5_sit,findpeaks,find_peaks baseline,mid_upslope,none,1.0,100.0,True,False,638,638,0.9911163611061667,0.0,0.00014324260929532087,638,0,0,1.0,1.0,1.0,267.5186670266659,3.51192773705333,4.497640727796028,0.0006194417148856443,4.501175177382476,637,774.7158555729984,774.7164750147134,0.000619441715002722,0.000619441715002722,7.995727860049645e-05,49.02100643708726,50.12355501687647,1.1025485797892145,1.1025485797892145,2.2491349319892215,26.212124517066584,27.60843236565969,1.396307848593107,1.396307848593107,5.326954126453878,5.345911949685535,6.918238993710692,1.5723270440251573,1.5723270440251573,29.411764705882355,26.232755677027686,27.63016230488371,1.397406627856025,1.397406627856025,5.326953237626308,18.54935942843618,19.537475131068202,0.9881157026320224,0.9881157026320224,5.326953237626311,66.79849855351979,68.13977253089841,1.34127397737862,1.34127397737862,2.007940307676189,0.2776912629791252,0.2867264507260985,0.009035187746973261,0.009035187746973261,3.2536809585011897,1.5491181222005777,1.5057755504426895,-0.04334257175788814,0.04334257175788814,-2.7978868193936344,1.2379608927180985,1.2209025267898097,-0.0170583659282888,0.0170583659282888,-1.3779406141687573,886.7114917235966,928.6218464429924,41.91035471939574,41.91035471939574,4.726492789433695,287.29067184026013,331.89419359365974,44.603521753399605,44.603521753399605,15.525572573480607,3.086461130268189,2.797945442757309,-0.2885156875108801,0.2885156875108801,-9.3477829570402
s5_sit,msptdfast,MSPTDfast v2,mid_upslope,median_mad,1.0,100.0,True,False,637,638,0.9911163611061667,0.0015723270440251573,0.021718009191836432,637,0,1,0.9984326018808778,1.0,0.9992156862745099,267.50521200942336,3.509940134539909,4.497123597609184,-0.00670493446300115,4.50065824453837,636,774.7158555729984,774.6418497717731,-0.07400580122532574,0.07400580122532574,-0.009552638001785735,49.02100643708726,50.06293001801591,1.0419235809286533,1.0419235809286533,2.1254634628235154,26.212124517066584,27.62114807351404,1.4090235564474547,1.4090235564474547,5.3754649133077566,5.345911949685535,6.940063091482649,1.5941511417971146,1.5941511417971146,29.82000371126367,26.232755677027686,27.64294208269405,1.4101864056663622,1.4101864056663622,5.375670108883293,18.54935942843618,19.54651179861995,0.9971523701837697,0.9971523701837697,5.375670108883299,66.79849855351979,68.04798160477597,1.2494830512561776,1.2494830512561776,1.8705256529906524,0.2776912629791252,0.28724601873052574,0.009554755751400523,0.009554755751400523,3.4407837138609505,1.5491181222005777,1.5055720057872877,-0.04354611641328998,0.04354611641328998,-2.811026208345634,1.2379608927180985,1.242959981726127,0.004999089008028479,0.004999089008028479,0.4038163917320806,886.7114917235966,926.072786456138,39.36129473254141,39.36129473254141,4.4390193540889635,287.29067184026013,332.4443787385163,45.15370689825619,45.15370689825619,15.717080756232361,3.086461130268189,2.7856473012724314,-0.3008138289957576,0.3008138289957576,-9.746237399387539
s5_sit,msptd,MSPTD,mid_upslope,median_mad,1.0,100.0,True,False,637,638,0.9911163611061667,0.0015723270440251573,0.8989911729969414,637,0,1,0.9984326018808778,1.0,0.9992156862745099,267.50521200942336,3.5100960276224806,4.497354434980261,-0.00670493446300115,4.500889263856406,636,774.7158555729984,774.6418497717731,-0.07400580122532574,0.07400580122532574,-0.009552638001785735,49.02100643708726,50.06290375230636,1.041897315219103,1.041897315219103,2.1254098823047554,26.212124517066584,27.621049985211133,1.4089254681445489,1.4089254681445489,5.375090703644431,5.345911949685535,6.940063091482649,1.5941511417971146,1.5941511417971146,29.82000371126367,26.232755677027686,27.642843916889422,1.4100882398617358,1.4100882398617358,5.3752958980842624,18.54935942843618,19.546442384913817,0.9970829564776373,0.9970829564776373,5.375295898084268,66.79849855351979,68.0479628961707,1.24946434265091,1.24946434265091,1.8704976454670212,0.2776912629791252,0.2872450776335255,0.009553814654400306,0.009553814654400306,3.44044481338921,1.5491181222005777,1.5053586269323227,-0.043759495268254955,0.043759495268254955,-2.824800422971815,1.2379608927180985,1.2429634115016823,0.00500251878358382,0.00500251878358382,0.4040934421280597,886.7114917235966,926.0736249490508,39.36213322545416,39.36213322545416,4.439113916178276,287.29067184026013,332.44157510276045,45.15090326250032,45.15090326250032,15.716104868035956,3.086461130268189,2.785673316169296,-0.3007878140988929,0.3007878140988929,-9.74539452802883
